Phone timestamp;sensor timestamp [ns];timestamp [ms];ecg [uV]
2025-11-19T00:27:47.795;599620011771959424;0.0;1419
2025-11-19T00:27:47.802;599620011779651712;7.692288;9943
2025-11-19T00:27:47.810;599620011787344000;15.384576;20464
2025-11-19T00:27:47.818;599620011795036288;23.076864;20464
2025-11-19T00:27:47.825;599620011802728704;30.76928;18280
2025-11-19T00:27:47.833;599620011810420992;38.461567;19642
2025-11-19T00:27:47.841;599620011818113280;46.153854;20464
2025-11-19T00:27:47.848;599620011825805568;53.846146;19107
2025-11-19T00:27:47.856;599620011833497856;61.538433;19117
2025-11-19T00:27:47.864;599620011841190144;69.23072;19562
2025-11-19T00:27:47.871;599620011848882560;76.923134;19005
2025-11-19T00:27:47.879;599620011856574848;84.615425;18715
2025-11-19T00:27:47.887;599620011864267136;92.30771;18765
2025-11-19T00:27:47.895;599620011871959424;100.0;18522
2025-11-19T00:27:47.902;599620011879651712;107.69229;18295
2025-11-19T00:27:47.910;599620011887344000;115.384575;18183
2025-11-19T00:27:47.918;599620011895036288;123.076866;17988
2025-11-19T00:27:47.925;599620011902728704;130.76929;17793
2025-11-19T00:27:47.933;599620011910420992;138.46156;17648
2025-11-19T00:27:47.941;599620011918113280;146.15385;17536
2025-11-19T00:27:47.948;599620011925805568;153.84615;17513
2025-11-19T00:27:47.956;599620011933497856;161.53844;17511
2025-11-19T00:27:47.964;599620011941190144;169.23071;17346
2025-11-19T00:27:47.971;599620011948882560;176.92314;17006
2025-11-19T00:27:47.979;599620011956574848;184.61542;16641
2025-11-19T00:27:47.987;599620011964267136;192.30771;16436
2025-11-19T00:27:47.995;599620011971959424;200.0;16381
2025-11-19T00:27:48.002;599620011979651712;207.69229;16249
2025-11-19T00:27:48.010;599620011987344000;215.38458;16037
2025-11-19T00:27:48.018;599620011995036288;223.07686;15882
2025-11-19T00:27:48.025;599620012002728704;230.76929;15724
2025-11-19T00:27:48.033;599620012010420992;238.46156;15567
2025-11-19T00:27:48.041;599620012018113280;246.15385;15467
2025-11-19T00:27:48.048;599620012025805568;253.84615;15345
2025-11-19T00:27:48.056;599620012033497856;261.53842;15190
2025-11-19T00:27:48.064;599620012041190144;269.2307;15065
2025-11-19T00:27:48.071;599620012048882560;276.92313;14925
2025-11-19T00:27:48.079;599620012056574848;284.61542;14740
2025-11-19T00:27:48.087;599620012064267136;292.3077;14573
2025-11-19T00:27:48.095;599620012071959424;300.0;14420
2025-11-19T00:27:48.102;599620012079651712;307.6923;14260
2025-11-19T00:27:48.110;599620012087344000;315.38458;14133
2025-11-19T00:27:48.118;599620012095036288;323.07687;13988
2025-11-19T00:27:48.125;599620012102728704;330.7693;13823
2025-11-19T00:27:48.133;599620012110420992;338.46158;13741
2025-11-19T00:27:48.141;599620012118113280;346.15387;13721
2025-11-19T00:27:48.148;599620012125805568;353.84613;13673
2025-11-19T00:27:48.156;599620012133497856;361.53842;13483
2025-11-19T00:27:48.164;599620012141190144;369.2307;13241
2025-11-19T00:27:48.171;599620012148882560;376.92313;13131
2025-11-19T00:27:48.179;599620012156574848;384.61542;13086
2025-11-19T00:27:48.187;599620012164267136;392.3077;12986
2025-11-19T00:27:48.195;599620012171959424;400.0;12881
2025-11-19T00:27:48.202;599620012179651712;407.6923;12791
2025-11-19T00:27:48.210;599620012187344000;415.38458;12679
2025-11-19T00:27:48.218;599620012195036288;423.07687;12501
2025-11-19T00:27:48.225;599620012202728704;430.7693;12274
2025-11-19T00:27:48.233;599620012210420992;438.46158;12094
2025-11-19T00:27:48.241;599620012218113280;446.15387;11979
2025-11-19T00:27:48.248;599620012225805568;453.84613;11882
2025-11-19T00:27:48.256;599620012233497856;461.53842;11687
2025-11-19T00:27:48.264;599620012241190144;469.2307;11392
2025-11-19T00:27:48.271;599620012248882560;476.92313;11297
2025-11-19T00:27:48.279;599620012256574848;484.61542;11330
2025-11-19T00:27:48.287;599620012264267136;492.3077;11160
2025-11-19T00:27:48.295;599620012271959424;500.0;10977
2025-11-19T00:27:48.302;599620012279651712;507.6923;10820
2025-11-19T00:27:48.310;599620012287344000;515.3846;10553
2025-11-19T00:27:48.318;599620012295036288;523.07684;10548
2025-11-19T00:27:48.325;599620012302728704;530.7693;10782
2025-11-19T00:27:48.333;599620012310420992;538.46155;10807
2025-11-19T00:27:48.341;599620012318113280;546.1539;10730
2025-11-19T00:27:48.348;599620012325805591;553.8461;10733
2025-11-19T00:27:48.356;599620012333479552;561.52014;10625
2025-11-19T00:27:48.364;599620012341153536;569.1941;10430
2025-11-19T00:27:48.371;599620012348827648;576.8682;10400
2025-11-19T00:27:48.379;599620012356501632;584.54224;10348
2025-11-19T00:27:48.387;599620012364175616;592.2162;10135
2025-11-19T00:27:48.394;599620012371849728;599.8903;10058
2025-11-19T00:27:48.402;599620012379523712;607.5643;10073
2025-11-19T00:27:48.410;599620012387197696;615.2383;9968
2025-11-19T00:27:48.417;599620012394871680;622.91223;9858
2025-11-19T00:27:48.425;599620012402545792;630.58636;9756
2025-11-19T00:27:48.433;599620012410219776;638.2604;9633
2025-11-19T00:27:48.440;599620012417893760;645.9343;9546
2025-11-19T00:27:48.448;599620012425567872;653.60846;9433
2025-11-19T00:27:48.456;599620012433241856;661.2824;9331
2025-11-19T00:27:48.463;599620012440915840;668.9564;9251
2025-11-19T00:27:48.471;599620012448589952;676.63055;9171
2025-11-19T00:27:48.479;599620012456263936;684.3045;9109
2025-11-19T00:27:48.486;599620012463937920;691.9785;8944
2025-11-19T00:27:48.494;599620012471611904;699.65247;8754
2025-11-19T00:27:48.502;599620012479286016;707.3266;8679
2025-11-19T00:27:48.510;599620012486960000;715.00055;8681
2025-11-19T00:27:48.517;599620012494633984;722.67456;8774
2025-11-19T00:27:48.525;599620012502308096;730.3487;8856
2025-11-19T00:27:48.533;599620012509982080;738.02264;8774
2025-11-19T00:27:48.540;599620012517656064;745.69666;8611
2025-11-19T00:27:48.548;599620012525330176;753.3707;8442
2025-11-19T00:27:48.556;599620012533004160;761.04474;8342
2025-11-19T00:27:48.563;599620012540678144;768.71875;8407
2025-11-19T00:27:48.571;599620012548352128;776.3927;8427
2025-11-19T00:27:48.579;599620012556026240;784.06683;8312
2025-11-19T00:27:48.586;599620012563700224;791.7408;8262
2025-11-19T00:27:48.594;599620012571374208;799.4148;8219
2025-11-19T00:27:48.602;599620012579048320;807.08887;8102
2025-11-19T00:27:48.609;599620012586722304;814.7629;8019
2025-11-19T00:27:48.617;599620012594396288;822.4369;7964
2025-11-19T00:27:48.625;599620012602070400;830.11096;7827
2025-11-19T00:27:48.632;599620012609744384;837.785;7600
2025-11-19T00:27:48.640;599620012617418368;845.4589;7422
2025-11-19T00:27:48.648;599620012625092480;853.13306;7402
2025-11-19T00:27:48.655;599620012632766464;860.80707;7475
2025-11-19T00:27:48.663;599620012640440448;868.481;7497
2025-11-19T00:27:48.671;599620012648114432;876.155;7377
2025-11-19T00:27:48.678;599620012655788544;883.8291;7260
2025-11-19T00:27:48.686;599620012663462528;891.5031;7242
2025-11-19T00:27:48.694;599620012671136512;899.17706;7142
2025-11-19T00:27:48.701;599620012678810624;906.8512;6980
2025-11-19T00:27:48.709;599620012686484608;914.5252;6975
2025-11-19T00:27:48.717;599620012694158592;922.19916;7110
2025-11-19T00:27:48.724;599620012701832704;929.8733;7197
2025-11-19T00:27:48.732;599620012709506688;937.54724;7155
2025-11-19T00:27:48.740;599620012717180672;945.22125;6935
2025-11-19T00:27:48.747;599620012724854656;952.8952;6535
2025-11-19T00:27:48.755;599620012732528768;960.56934;6455
2025-11-19T00:27:48.763;599620012740202752;968.24335;6733
2025-11-19T00:27:48.770;599620012747876736;975.9173;6610
2025-11-19T00:27:48.778;599620012755550848;983.59143;6300
2025-11-19T00:27:48.786;599620012763224832;991.2654;6408
2025-11-19T00:27:48.793;599620012770898816;998.9394;6543
2025-11-19T00:27:48.801;599620012778572928;1006.6135;6363
2025-11-19T00:27:48.809;599620012786246912;1014.2875;6195
2025-11-19T00:27:48.816;599620012793920896;1021.9615;6195
2025-11-19T00:27:48.824;599620012801595008;1029.6356;6101
2025-11-19T00:27:48.832;599620012809268992;1037.3096;5926
2025-11-19T00:27:48.839;599620012816942976;1044.9835;5773
2025-11-19T00:27:48.847;599620012824616960;1052.6576;5646
2025-11-19T00:27:48.855;599620012832291072;1060.3317;5688
2025-11-19T00:27:48.863;599620012839965056;1068.0056;5643
2025-11-19T00:27:48.870;599620012847639040;1075.6796;5468
2025-11-19T00:27:48.878;599620012855313152;1083.3538;5413
2025-11-19T00:27:48.886;599620012862987136;1091.0277;5244
2025-11-19T00:27:48.893;599620012870661120;1098.7017;5266
2025-11-19T00:27:48.901;599620012878335232;1106.3759;5633
2025-11-19T00:27:48.909;599620012886009258;1114.0498;5683
2025-11-19T00:27:48.916;599620012893683200;1121.7238;5498
2025-11-19T00:27:48.924;599620012901357184;1129.3977;5551
2025-11-19T00:27:48.932;599620012909031296;1137.0719;5603
2025-11-19T00:27:48.939;599620012916705280;1144.7458;5451
2025-11-19T00:27:48.947;599620012924379264;1152.4198;5339
2025-11-19T00:27:48.955;599620012932053376;1160.094;5301
2025-11-19T00:27:48.962;599620012939727360;1167.768;5176
2025-11-19T00:27:48.970;599620012947401344;1175.4419;5029
2025-11-19T00:27:48.978;599620012955075328;1183.1158;4926
2025-11-19T00:27:48.985;599620012962749440;1190.79;4821
2025-11-19T00:27:48.993;599620012970423424;1198.464;4731
2025-11-19T00:27:49.001;599620012978097408;1206.138;4681
2025-11-19T00:27:49.008;599620012985771520;1213.8121;4636
2025-11-19T00:27:49.016;599620012993445504;1221.4861;4589
2025-11-19T00:27:49.024;599620013001119488;1229.16;4534
2025-11-19T00:27:49.031;599620013008793600;1236.8342;4484
2025-11-19T00:27:49.039;599620013016467584;1244.5082;4482
2025-11-19T00:27:49.047;599620013024141568;1252.1821;4482
2025-11-19T00:27:49.054;599620013031815552;1259.8561;4397
2025-11-19T00:27:49.062;599620013039489664;1267.5303;4274
2025-11-19T00:27:49.070;599620013047163648;1275.2042;4224
2025-11-19T00:27:49.077;599620013054837632;1282.8782;4192
2025-11-19T00:27:49.085;599620013062511744;1290.5524;4032
2025-11-19T00:27:49.093;599620013070185728;1298.2263;3892
2025-11-19T00:27:49.100;599620013077859712;1305.9003;3984
2025-11-19T00:27:49.108;599620013085533824;1313.5743;4054
2025-11-19T00:27:49.116;599620013093207808;1321.2484;3922
2025-11-19T00:27:49.123;599620013100881792;1328.9224;3822
2025-11-19T00:27:49.131;599620013108555776;1336.5963;3752
2025-11-19T00:27:49.139;599620013116229888;1344.2705;3667
2025-11-19T00:27:49.146;599620013123903872;1351.9445;3675
2025-11-19T00:27:49.154;599620013131577856;1359.6184;3687
2025-11-19T00:27:49.162;599620013139251968;1367.2926;3635
2025-11-19T00:27:49.169;599620013146925952;1374.9666;3570
2025-11-19T00:27:49.177;599620013154599936;1382.6405;3527
2025-11-19T00:27:49.185;599620013162274048;1390.3146;3500
2025-11-19T00:27:49.192;599620013169948032;1397.9886;3430
2025-11-19T00:27:49.200;599620013177622016;1405.6626;3305
2025-11-19T00:27:49.208;599620013185296128;1413.3367;3220
2025-11-19T00:27:49.216;599620013192970112;1421.0107;3222
2025-11-19T00:27:49.223;599620013200644096;1428.6847;3257
2025-11-19T00:27:49.231;599620013208318080;1436.3586;3285
2025-11-19T00:27:49.239;599620013215992192;1444.0327;3257
2025-11-19T00:27:49.246;599620013223666176;1451.7068;3190
2025-11-19T00:27:49.254;599620013231340160;1459.3807;3140
2025-11-19T00:27:49.262;599620013239014272;1467.0548;3033
2025-11-19T00:27:49.269;599620013246688256;1474.7289;2910
2025-11-19T00:27:49.277;599620013254362240;1482.4028;2928
2025-11-19T00:27:49.285;599620013262036352;1490.0769;2935
2025-11-19T00:27:49.292;599620013269710336;1497.7509;2770
2025-11-19T00:27:49.300;599620013277384320;1505.4249;2370
2025-11-19T00:27:49.308;599620013285058304;1513.0989;1903
2025-11-19T00:27:49.315;599620013292732416;1520.773;1986
2025-11-19T00:27:49.323;599620013300406400;1528.447;2553
2025-11-19T00:27:49.331;599620013308080384;1536.121;2810
2025-11-19T00:27:49.338;599620013315754496;1543.795;2763
2025-11-19T00:27:49.346;599620013323428480;1551.4691;2753
2025-11-19T00:27:49.354;599620013331102464;1559.1431;2735
2025-11-19T00:27:49.361;599620013338776576;1566.8171;2728
2025-11-19T00:27:49.369;599620013346450560;1574.4911;2688
2025-11-19T00:27:49.377;599620013354124544;1582.1652;2505
2025-11-19T00:27:49.384;599620013361798656;1589.8392;2281
2025-11-19T00:27:49.392;599620013369472640;1597.5132;2183
2025-11-19T00:27:49.400;599620013377146624;1605.1873;2161
2025-11-19T00:27:49.407;599620013384820608;1612.8612;2081
2025-11-19T00:27:49.415;599620013392494720;1620.5353;2108
2025-11-19T00:27:49.423;599620013400168704;1628.2092;2211
2025-11-19T00:27:49.430;599620013407842688;1635.8833;2161
2025-11-19T00:27:49.438;599620013415516800;1643.5574;2048
2025-11-19T00:27:49.446;599620013423190784;1651.2313;1993
2025-11-19T00:27:49.453;599620013430864768;1658.9054;1966
2025-11-19T00:27:49.461;599620013438538880;1666.5795;1986
2025-11-19T00:27:49.469;599620013446212925;1674.2534;2028
2025-11-19T00:27:49.476;599620013453886848;1681.9274;2098
2025-11-19T00:27:49.484;599620013461560832;1689.6014;2106
2025-11-19T00:27:49.492;599620013469234944;1697.2755;1906
2025-11-19T00:27:49.499;599620013476908928;1704.9495;1808
2025-11-19T00:27:49.507;599620013484582912;1712.6235;1926
2025-11-19T00:27:49.515;599620013492257024;1720.2976;1956
2025-11-19T00:27:49.522;599620013499931008;1727.9716;1933
2025-11-19T00:27:49.530;599620013507604992;1735.6455;2016
2025-11-19T00:27:49.538;599620013515278976;1743.3196;2048
2025-11-19T00:27:49.545;599620013522953088;1750.9937;1928
2025-11-19T00:27:49.553;599620013530627072;1758.6676;1926
2025-11-19T00:27:49.561;599620013538301056;1766.3417;2108
2025-11-19T00:27:49.569;599620013545975168;1774.0157;2173
2025-11-19T00:27:49.576;599620013553649152;1781.6897;2063
2025-11-19T00:27:49.584;599620013561323136;1789.3638;1956
2025-11-19T00:27:49.592;599620013568997248;1797.0378;1936
2025-11-19T00:27:49.599;599620013576671232;1804.7118;1948
2025-11-19T00:27:49.607;599620013584345216;1812.3857;1916
2025-11-19T00:27:49.615;599620013592019200;1820.0598;1876
2025-11-19T00:27:49.622;599620013599693312;1827.7339;1903
2025-11-19T00:27:49.630;599620013607367296;1835.4078;1943
2025-11-19T00:27:49.638;599620013615041280;1843.0819;1903
2025-11-19T00:27:49.645;599620013622715392;1850.756;1821
2025-11-19T00:27:49.653;599620013630389376;1858.4299;1831
2025-11-19T00:27:49.661;599620013638063360;1866.1039;1926
2025-11-19T00:27:49.668;599620013645737472;1873.7781;1916
2025-11-19T00:27:49.676;599620013653411456;1881.452;1816
2025-11-19T00:27:49.684;599620013661085440;1889.126;1811
2025-11-19T00:27:49.691;599620013668759424;1896.8;1761
2025-11-19T00:27:49.699;599620013676433536;1904.4741;1628
2025-11-19T00:27:49.707;599620013684107520;1912.1481;1648
2025-11-19T00:27:49.714;599620013691781504;1919.822;1718
2025-11-19T00:27:49.722;599620013699455616;1927.4962;1633
2025-11-19T00:27:49.730;599620013707129600;1935.1702;1538
2025-11-19T00:27:49.737;599620013714803584;1942.8441;1573
2025-11-19T00:27:49.745;599620013722477696;1950.5183;1593
2025-11-19T00:27:49.753;599620013730151680;1958.1923;1509
2025-11-19T00:27:49.760;599620013737825664;1965.8662;1434
2025-11-19T00:27:49.768;599620013745499776;1973.5404;1401
2025-11-19T00:27:49.776;599620013753173760;1981.2144;1359
2025-11-19T00:27:49.783;599620013760847744;1988.8883;1296
2025-11-19T00:27:49.791;599620013768521728;1996.5623;1309
2025-11-19T00:27:49.799;599620013776195840;2004.2365;1406
2025-11-19T00:27:49.806;599620013783869824;2011.9104;1401
2025-11-19T00:27:49.814;599620013791543808;2019.5844;1376
2025-11-19T00:27:49.822;599620013799217920;2027.2585;1469
2025-11-19T00:27:49.829;599620013806891904;2034.9325;1516
2025-11-19T00:27:49.837;599620013814565888;2042.6064;1424
2025-11-19T00:27:49.845;599620013822240000;2050.2805;1281
2025-11-19T00:27:49.852;599620013829913984;2057.9546;1186
2025-11-19T00:27:49.860;599620013837587968;2065.6287;1189
2025-11-19T00:27:49.868;599620013845261952;2073.3025;1239
2025-11-19T00:27:49.875;599620013852936064;2080.9766;1189
2025-11-19T00:27:49.883;599620013860610048;2088.6506;1099
2025-11-19T00:27:49.891;599620013868284032;2096.3247;1071
2025-11-19T00:27:49.898;599620013875958144;2103.9988;1001
2025-11-19T00:27:49.906;599620013883632128;2111.6726;971
2025-11-19T00:27:49.914;599620013891306112;2119.3467;1036
2025-11-19T00:27:49.922;599620013898980224;2127.0208;1059
2025-11-19T00:27:49.929;599620013906654208;2134.6948;1139
2025-11-19T00:27:49.937;599620013914328192;2142.3687;1209
2025-11-19T00:27:49.945;599620013922002304;2150.043;1056
2025-11-19T00:27:49.952;599620013929676288;2157.717;889
2025-11-19T00:27:49.960;599620013937350272;2165.3909;884
2025-11-19T00:27:49.968;599620013945024256;2173.0647;904
2025-11-19T00:27:49.975;599620013952698368;2180.739;829
2025-11-19T00:27:49.983;599620013960372352;2188.4128;729
2025-11-19T00:27:49.991;599620013968046336;2196.0867;762
2025-11-19T00:27:49.998;599620013975720448;2203.7612;861
2025-11-19T00:27:50.006;599620013983394432;2211.435;806
2025-11-19T00:27:50.014;599620013991068416;2219.109;771
2025-11-19T00:27:50.021;599620013998742528;2226.7832;1021
2025-11-19T00:27:50.029;599620014006416592;2234.457;1126
2025-11-19T00:27:50.037;599620014014090752;2242.1313;929
2025-11-19T00:27:50.044;599620014021764864;2249.8054;692
2025-11-19T00:27:50.052;599620014029438976;2257.4797;429
2025-11-19T00:27:50.060;599620014037113088;2265.1536;467
2025-11-19T00:27:50.067;599620014044787072;2272.8276;804
2025-11-19T00:27:50.075;599620014052461184;2280.5017;801
2025-11-19T00:27:50.083;599620014060135296;2288.1758;594
2025-11-19T00:27:50.090;599620014067809408;2295.85;749
2025-11-19T00:27:50.098;599620014075483520;2303.5242;1086
2025-11-19T00:27:50.106;599620014083157632;2311.1982;1191
2025-11-19T00:27:50.113;599620014090831616;2318.872;1116
2025-11-19T00:27:50.121;599620014098505728;2326.5464;1079
2025-11-19T00:27:50.129;599620014106179840;2334.2202;956
2025-11-19T00:27:50.136;599620014113853952;2341.8948;809
2025-11-19T00:27:50.144;599620014121528064;2349.5686;816
2025-11-19T00:27:50.152;599620014129202176;2357.243;799
2025-11-19T00:27:50.159;599620014136876288;2364.9167;826
2025-11-19T00:27:50.167;599620014144550272;2372.5908;1016
2025-11-19T00:27:50.175;599620014152224384;2380.265;1031
2025-11-19T00:27:50.182;599620014159898496;2387.939;889
2025-11-19T00:27:50.190;599620014167572608;2395.6133;966
2025-11-19T00:27:50.198;599620014175246720;2403.2874;1029
2025-11-19T00:27:50.205;599620014182920832;2410.9614;806
2025-11-19T00:27:50.213;599620014190594816;2418.6353;657
2025-11-19T00:27:50.221;599620014198268928;2426.3096;717
2025-11-19T00:27:50.228;599620014205943040;2433.9834;854
2025-11-19T00:27:50.236;599620014213617152;2441.658;1104
2025-11-19T00:27:50.244;599620014221291264;2449.3318;1264
2025-11-19T00:27:50.252;599620014228965376;2457.006;1221
2025-11-19T00:27:50.259;599620014236639488;2464.68;1146
2025-11-19T00:27:50.267;599620014244313472;2472.354;981
2025-11-19T00:27:50.275;599620014251987584;2480.028;747
2025-11-19T00:27:50.282;599620014259661696;2487.7024;754
2025-11-19T00:27:50.290;599620014267335808;2495.3765;854
2025-11-19T00:27:50.298;599620014275009920;2503.0505;729
2025-11-19T00:27:50.305;599620014282684032;2510.7246;619
2025-11-19T00:27:50.313;599620014290358144;2518.3987;649
2025-11-19T00:27:50.321;599620014298032128;2526.0728;474
2025-11-19T00:27:50.328;599620014305706240;2533.7466;152
2025-11-19T00:27:50.336;599620014313380352;2541.4211;209
2025-11-19T00:27:50.344;599620014321054464;2549.095;549
2025-11-19T00:27:50.351;599620014328728576;2556.7693;642
2025-11-19T00:27:50.359;599620014336402688;2564.443;557
2025-11-19T00:27:50.367;599620014344076672;2572.1172;567
2025-11-19T00:27:50.374;599620014351750784;2579.7913;562
2025-11-19T00:27:50.382;599620014359424896;2587.4656;434
2025-11-19T00:27:50.390;599620014367099008;2595.1396;317
2025-11-19T00:27:50.397;599620014374773120;2602.8137;302
2025-11-19T00:27:50.405;599620014382447232;2610.4878;322
2025-11-19T00:27:50.413;599620014390121344;2618.1619;252
2025-11-19T00:27:50.420;599620014397795328;2625.836;127
2025-11-19T00:27:50.428;599620014405469440;2633.51;109
2025-11-19T00:27:50.436;599620014413143552;2641.1843;312
2025-11-19T00:27:50.443;599620014420817664;2648.8582;757
2025-11-19T00:27:50.451;599620014428491776;2656.5325;1066
2025-11-19T00:27:50.459;599620014436165888;2664.2063;949
2025-11-19T00:27:50.466;599620014443839872;2671.8804;762
2025-11-19T00:27:50.474;599620014451513984;2679.5544;739
2025-11-19T00:27:50.482;599620014459188096;2687.2288;699
2025-11-19T00:27:50.489;599620014466862208;2694.9028;619
2025-11-19T00:27:50.497;599620014474536320;2702.577;574
2025-11-19T00:27:50.505;599620014482210432;2710.251;532
2025-11-19T00:27:50.512;599620014489884544;2717.925;477
2025-11-19T00:27:50.520;599620014497558528;2725.599;372
2025-11-19T00:27:50.528;599620014505232640;2733.2732;212
2025-11-19T00:27:50.535;599620014512906752;2740.9475;172
2025-11-19T00:27:50.543;599620014520580864;2748.6213;282
2025-11-19T00:27:50.551;599620014528254976;2756.2957;339
2025-11-19T00:27:50.558;599620014535929088;2763.9695;269
2025-11-19T00:27:50.566;599620014543603072;2771.6436;282
2025-11-19T00:27:50.574;599620014551277184;2779.3179;429
2025-11-19T00:27:50.581;599620014558951296;2786.992;479
2025-11-19T00:27:50.589;599620014566625342;2794.666;432
2025-11-19T00:27:50.597;599620014574299264;2802.3398;402
2025-11-19T00:27:50.605;599620014581973248;2810.0137;394
2025-11-19T00:27:50.612;599620014589647232;2817.6877;449
2025-11-19T00:27:50.620;599620014597321088;2825.3616;487
2025-11-19T00:27:50.628;599620014604995072;2833.036;399
2025-11-19T00:27:50.635;599620014612669056;2840.7097;282
2025-11-19T00:27:50.643;599620014620343040;2848.3835;299
2025-11-19T00:27:50.651;599620014628016896;2856.0574;344
2025-11-19T00:27:50.658;599620014635690880;2863.7314;244
2025-11-19T00:27:50.666;599620014643364864;2871.4055;174
2025-11-19T00:27:50.674;599620014651038848;2879.0793;227
2025-11-19T00:27:50.681;599620014658712704;2886.7532;184
2025-11-19T00:27:50.689;599620014666386688;2894.4272;74
2025-11-19T00:27:50.697;599620014674060672;2902.1013;94
2025-11-19T00:27:50.704;599620014681734656;2909.7754;177
2025-11-19T00:27:50.712;599620014689408512;2917.4492;217
2025-11-19T00:27:50.720;599620014697082496;2925.123;222
2025-11-19T00:27:50.727;599620014704756480;2932.7969;212
2025-11-19T00:27:50.735;599620014712430464;2940.471;197
2025-11-19T00:27:50.743;599620014720104320;2948.1448;172
2025-11-19T00:27:50.750;599620014727778304;2955.819;179
2025-11-19T00:27:50.758;599620014735452288;2963.493;174
2025-11-19T00:27:50.766;599620014743126272;2971.1667;107
2025-11-19T00:27:50.773;599620014750800128;2978.8406;97
2025-11-19T00:27:50.781;599620014758474112;2986.5146;94
2025-11-19T00:27:50.789;599620014766148096;2994.1887;62
2025-11-19T00:27:50.796;599620014773822080;3001.8625;152
2025-11-19T00:27:50.804;599620014781495936;3009.5366;219
2025-11-19T00:27:50.812;599620014789169920;3017.2104;177
2025-11-19T00:27:50.819;599620014796843904;3024.8845;259
2025-11-19T00:27:50.827;599620014804517888;3032.5586;377
2025-11-19T00:27:50.835;599620014812191872;3040.2324;317
2025-11-19T00:27:50.842;599620014819865728;3047.9062;224
2025-11-19T00:27:50.850;599620014827539712;3055.58;237
2025-11-19T00:27:50.858;599620014835213696;3063.2542;264
2025-11-19T00:27:50.865;599620014842887680;3070.9285;254
2025-11-19T00:27:50.873;599620014850561536;3078.6023;204
2025-11-19T00:27:50.881;599620014858235520;3086.2761;154
2025-11-19T00:27:50.888;599620014865909504;3093.95;184
2025-11-19T00:27:50.896;599620014873583488;3101.624;227
2025-11-19T00:27:50.904;599620014881257344;3109.2979;189
2025-11-19T00:27:50.911;599620014888931328;3116.972;92
2025-11-19T00:27:50.919;599620014896605312;3124.646;64
2025-11-19T00:27:50.927;599620014904279296;3132.3198;132
2025-11-19T00:27:50.934;599620014911953152;3139.9937;112
2025-11-19T00:27:50.942;599620014919627136;3147.6677;-2
2025-11-19T00:27:50.950;599620014927301120;3155.3418;-17
2025-11-19T00:27:50.958;599620014934975104;3163.0156;54
2025-11-19T00:27:50.965;599620014942648960;3170.6895;97
2025-11-19T00:27:50.973;599620014950322944;3178.3633;114
2025-11-19T00:27:50.981;599620014957996928;3186.0376;134
2025-11-19T00:27:50.988;599620014965670912;3193.7117;152
2025-11-19T00:27:50.996;599620014973344768;3201.3855;134
2025-11-19T00:27:51.004;599620014981018752;3209.0593;102
2025-11-19T00:27:51.011;599620014988692736;3216.7332;139
2025-11-19T00:27:51.019;599620014996366720;3224.4072;242
2025-11-19T00:27:51.027;599620015004040704;3232.0813;389
2025-11-19T00:27:51.034;599620015011714560;3239.7554;547
2025-11-19T00:27:51.042;599620015019388544;3247.4292;562
2025-11-19T00:27:51.050;599620015027062528;3255.103;359
2025-11-19T00:27:51.057;599620015034736512;3262.777;147
2025-11-19T00:27:51.065;599620015042410368;3270.451;99
2025-11-19T00:27:51.073;599620015050084352;3278.125;24
2025-11-19T00:27:51.080;599620015057758336;3285.7988;-99
2025-11-19T00:27:51.088;599620015065432320;3293.4727;-174
2025-11-19T00:27:51.096;599620015073106176;3301.1467;-217
2025-11-19T00:27:51.103;599620015080780160;3308.8208;-129
2025-11-19T00:27:51.111;599620015088454144;3316.4949;-62
2025-11-19T00:27:51.119;599620015096128128;3324.1687;-129
2025-11-19T00:27:51.126;599620015103801984;3331.8425;-139
2025-11-19T00:27:51.134;599620015111475968;3339.5164;-89
2025-11-19T00:27:51.142;599620015119149952;3347.1904;-77
2025-11-19T00:27:51.149;599620015126823922;3354.8645;-59
2025-11-19T00:27:51.157;599620015134497920;3362.5386;-19
2025-11-19T00:27:51.165;599620015142171904;3370.2124;4
2025-11-19T00:27:51.172;599620015149846016;3377.8867;22
2025-11-19T00:27:51.180;599620015157520000;3385.5605;24
2025-11-19T00:27:51.188;599620015165193984;3393.2344;37
2025-11-19T00:27:51.195;599620015172868096;3400.9087;54
2025-11-19T00:27:51.203;599620015180542080;3408.5828;39
2025-11-19T00:27:51.211;599620015188216064;3416.2566;-12
2025-11-19T00:27:51.218;599620015195890048;3423.9307;-47
2025-11-19T00:27:51.226;599620015203564160;3431.6047;4
2025-11-19T00:27:51.234;599620015211238144;3439.2786;79
2025-11-19T00:27:51.241;599620015218912128;3446.9526;22
2025-11-19T00:27:51.249;599620015226586240;3454.6267;-69
2025-11-19T00:27:51.257;599620015234260224;3462.3008;49
2025-11-19T00:27:51.264;599620015241934208;3469.9749;144
2025-11-19T00:27:51.272;599620015249608320;3477.649;57
2025-11-19T00:27:51.280;599620015257282304;3485.3228;127
2025-11-19T00:27:51.287;599620015264956288;3492.9968;219
2025-11-19T00:27:51.295;599620015272630272;3500.671;-82
2025-11-19T00:27:51.303;599620015280304384;3508.3447;-317
2025-11-19T00:27:51.311;599620015287978368;3516.019;19
2025-11-19T00:27:51.318;599620015295652352;3523.693;227
2025-11-19T00:27:51.326;599620015303326464;3531.367;9
2025-11-19T00:27:51.334;599620015311000448;3539.041;-37
2025-11-19T00:27:51.341;599620015318674432;3546.715;62
2025-11-19T00:27:51.349;599620015326348544;3554.389;-4
2025-11-19T00:27:51.357;599620015334022528;3562.063;-39
2025-11-19T00:27:51.364;599620015341696512;3569.7373;87
2025-11-19T00:27:51.372;599620015349370624;3577.4111;159
2025-11-19T00:27:51.380;599620015357044608;3585.0852;139
2025-11-19T00:27:51.387;599620015364718592;3592.7593;152
2025-11-19T00:27:51.395;599620015372392576;3600.433;134
2025-11-19T00:27:51.403;599620015380066688;3608.1072;44
2025-11-19T00:27:51.410;599620015387740672;3615.7815;-24
2025-11-19T00:27:51.418;599620015395414656;3623.4553;-14
2025-11-19T00:27:51.426;599620015403088768;3631.1294;29
2025-11-19T00:27:51.433;599620015410762752;3638.8035;47
2025-11-19T00:27:51.441;599620015418436736;3646.4773;14
2025-11-19T00:27:51.449;599620015426110848;3654.1514;-49
2025-11-19T00:27:51.456;599620015433784832;3661.8254;-79
2025-11-19T00:27:51.464;599620015441458816;3669.4995;-32
2025-11-19T00:27:51.472;599620015449132800;3677.1733;19
2025-11-19T00:27:51.479;599620015456806912;3684.8477;-19
2025-11-19T00:27:51.487;599620015464480896;3692.5215;-119
2025-11-19T00:27:51.495;599620015472154880;3700.1953;-139
2025-11-19T00:27:51.502;599620015479828992;3707.8696;-49
2025-11-19T00:27:51.510;599620015487502976;3715.5435;-19
2025-11-19T00:27:51.518;599620015495176960;3723.2175;-72
2025-11-19T00:27:51.525;599620015502851072;3730.8918;-117
2025-11-19T00:27:51.533;599620015510525056;3738.5657;-122
2025-11-19T00:27:51.541;599620015518199040;3746.2395;-77
2025-11-19T00:27:51.548;599620015525873024;3753.9136;-74
2025-11-19T00:27:51.556;599620015533547136;3761.5876;-192
2025-11-19T00:27:51.564;599620015541221120;3769.2615;-339
2025-11-19T00:27:51.571;599620015548895104;3776.9358;-332
2025-11-19T00:27:51.579;599620015556569216;3784.6099;-227
2025-11-19T00:27:51.587;599620015564243200;3792.2837;-262
2025-11-19T00:27:51.594;599620015571917184;3799.9578;-377
2025-11-19T00:27:51.602;599620015579591296;3807.6318;-407
2025-11-19T00:27:51.610;599620015587265280;3815.3057;-307
2025-11-19T00:27:51.617;599620015594939264;3822.9797;-169
2025-11-19T00:27:51.625;599620015602613376;3830.654;-184
2025-11-19T00:27:51.633;599620015610287360;3838.328;-197
2025-11-19T00:27:51.641;599620015617961344;3846.002;-44
2025-11-19T00:27:51.648;599620015625635328;3853.676;72
2025-11-19T00:27:51.656;599620015633309440;3861.3499;122
2025-11-19T00:27:51.664;599620015640983424;3869.024;177
2025-11-19T00:27:51.671;599620015648657408;3876.698;174
2025-11-19T00:27:51.679;599620015656331520;3884.372;104
2025-11-19T00:27:51.687;599620015664005504;3892.0461;-2
2025-11-19T00:27:51.694;599620015671679488;3899.7202;-49
2025-11-19T00:27:51.702;599620015679353600;3907.394;19
2025-11-19T00:27:51.710;599620015687027593;3915.068;49
2025-11-19T00:27:51.717;599620015694701568;3922.7422;-44
2025-11-19T00:27:51.725;599620015702375552;3930.416;-112
2025-11-19T00:27:51.733;599620015710049664;3938.0903;-129
2025-11-19T00:27:51.740;599620015717723648;3945.7644;-74
2025-11-19T00:27:51.748;599620015725397632;3953.4382;89
2025-11-19T00:27:51.756;599620015733071744;3961.1123;234
2025-11-19T00:27:51.763;599620015740745728;3968.7864;264
2025-11-19T00:27:51.771;599620015748419712;3976.4602;189
2025-11-19T00:27:51.779;599620015756093696;3984.134;142
2025-11-19T00:27:51.786;599620015763767808;3991.8086;214
2025-11-19T00:27:51.794;599620015771441792;3999.4824;299
2025-11-19T00:27:51.802;599620015779115776;4007.1562;397
2025-11-19T00:27:51.809;599620015786789888;4014.8306;612
2025-11-19T00:27:51.817;599620015794463872;4022.5044;719
2025-11-19T00:27:51.825;599620015802137856;4030.1782;527
2025-11-19T00:27:51.832;599620015809811968;4037.8528;362
2025-11-19T00:27:51.840;599620015817485952;4045.5266;344
2025-11-19T00:27:51.848;599620015825159936;4053.2004;212
2025-11-19T00:27:51.855;599620015832833920;4060.8745;92
2025-11-19T00:27:51.863;599620015840508032;4068.5486;194
2025-11-19T00:27:51.871;599620015848182016;4076.2224;262
2025-11-19T00:27:51.878;599620015855856000;4083.8965;162
2025-11-19T00:27:51.886;599620015863530112;4091.5708;99
2025-11-19T00:27:51.894;599620015871204096;4099.2446;102
2025-11-19T00:27:51.901;599620015878878080;4106.9185;54
2025-11-19T00:27:51.909;599620015886552192;4114.593;2
2025-11-19T00:27:51.917;599620015894226176;4122.2666;19
2025-11-19T00:27:51.924;599620015901900160;4129.941;32
2025-11-19T00:27:51.932;599620015909574144;4137.6147;67
2025-11-19T00:27:51.940;599620015917248256;4145.2886;147
2025-11-19T00:27:51.947;599620015924922240;4152.963;144
2025-11-19T00:27:51.955;599620015932596224;4160.6367;114
2025-11-19T00:27:51.963;599620015940270336;4168.3105;109
2025-11-19T00:27:51.970;599620015947944320;4175.985;89
2025-11-19T00:27:51.978;599620015955618304;4183.659;84
2025-11-19T00:27:51.986;599620015963292416;4191.333;52
2025-11-19T00:27:51.994;599620015970966400;4199.007;12
2025-11-19T00:27:52.001;599620015978640384;4206.681;54
2025-11-19T00:27:52.009;599620015986314496;4214.355;9
2025-11-19T00:27:52.017;599620015993988480;4222.0293;-187
2025-11-19T00:27:52.024;599620016001662464;4229.703;-264
2025-11-19T00:27:52.032;599620016009336448;4237.377;-227
2025-11-19T00:27:52.040;599620016017010560;4245.0513;-302
2025-11-19T00:27:52.047;599620016024684544;4252.725;-334
2025-11-19T00:27:52.055;599620016032358528;4260.399;-159
2025-11-19T00:27:52.063;599620016040032640;4268.073;-27
2025-11-19T00:27:52.070;599620016047706624;4275.7476;-52
2025-11-19T00:27:52.078;599620016055380608;4283.4214;-82
2025-11-19T00:27:52.086;599620016063054720;4291.095;-47
2025-11-19T00:27:52.093;599620016070728704;4298.7695;12
2025-11-19T00:27:52.101;599620016078402688;4306.4434;79
2025-11-19T00:27:52.109;599620016086076672;4314.117;169
2025-11-19T00:27:52.116;599620016093750784;4321.7915;202
2025-11-19T00:27:52.124;599620016101424768;4329.4653;129
2025-11-19T00:27:52.132;599620016109098752;4337.139;57
2025-11-19T00:27:52.139;599620016116772864;4344.8135;34
2025-11-19T00:27:52.147;599620016124446848;4352.4873;14
2025-11-19T00:27:52.155;599620016132120832;4360.161;-24
2025-11-19T00:27:52.162;599620016139794944;4367.8354;-17
2025-11-19T00:27:52.170;599620016147468928;4375.5093;-14
2025-11-19T00:27:52.178;599620016155142912;4383.1836;-99
2025-11-19T00:27:52.185;599620016162817024;4390.858;-109
2025-11-19T00:27:52.193;599620016170491008;4398.5317;-14
2025-11-19T00:27:52.201;599620016178164992;4406.2056;17
2025-11-19T00:27:52.208;599620016185838976;4413.8794;34
2025-11-19T00:27:52.216;599620016193513088;4421.5537;97
2025-11-19T00:27:52.224;599620016201187072;4429.2275;24
2025-11-19T00:27:52.231;599620016208861056;4436.902;-119
2025-11-19T00:27:52.239;599620016216535168;4444.5757;-64
2025-11-19T00:27:52.247;599620016224209152;4452.2495;122
2025-11-19T00:27:52.254;599620016231883136;4459.9233;159
2025-11-19T00:27:52.262;599620016239557248;4467.5977;29
2025-11-19T00:27:52.270;599620016247231260;4475.2715;-94
2025-11-19T00:27:52.277;599620016254905472;4482.9463;-137
2025-11-19T00:27:52.285;599620016262579712;4490.6206;-112
2025-11-19T00:27:52.293;599620016270253952;4498.295;-39
2025-11-19T00:27:52.300;599620016277928192;4505.9688;7
2025-11-19T00:27:52.308;599620016285602432;4513.643;-34
2025-11-19T00:27:52.316;599620016293276672;4521.3174;-44
2025-11-19T00:27:52.323;599620016300950912;4528.991;-7
2025-11-19T00:27:52.331;599620016308625152;4536.6655;-82
2025-11-19T00:27:52.339;599620016316299264;4544.34;-157
2025-11-19T00:27:52.347;599620016323973504;4552.0137;-77
2025-11-19T00:27:52.354;599620016331647744;4559.688;27
2025-11-19T00:27:52.362;599620016339321984;4567.363;22
2025-11-19T00:27:52.370;599620016346996224;4575.037;-27
2025-11-19T00:27:52.377;599620016354670464;4582.7114;-42
2025-11-19T00:27:52.385;599620016362344704;4590.3853;-59
2025-11-19T00:27:52.393;599620016370018944;4598.0596;-114
2025-11-19T00:27:52.400;599620016377693184;4605.734;-157
2025-11-19T00:27:52.408;599620016385367424;4613.4077;-84
2025-11-19T00:27:52.416;599620016393041664;4621.082;42
2025-11-19T00:27:52.423;599620016400715904;4628.7563;-2
2025-11-19T00:27:52.431;599620016408390144;4636.4307;-104
2025-11-19T00:27:52.439;599620016416064384;4644.105;-59
2025-11-19T00:27:52.446;599620016423738624;4651.7793;-2
2025-11-19T00:27:52.454;599620016431412864;4659.4536;54
2025-11-19T00:27:52.462;599620016439086976;4667.128;74
2025-11-19T00:27:52.469;599620016446761216;4674.802;-157
2025-11-19T00:27:52.477;599620016454435456;4682.476;-269
2025-11-19T00:27:52.485;599620016462109696;4690.1504;2
2025-11-19T00:27:52.492;599620016469783936;4697.824;197
2025-11-19T00:27:52.500;599620016477458176;4705.4985;182
2025-11-19T00:27:52.508;599620016485132416;4713.173;239
2025-11-19T00:27:52.515;599620016492806656;4720.847;259
2025-11-19T00:27:52.523;599620016500480896;4728.5215;142
2025-11-19T00:27:52.531;599620016508155136;4736.196;147
2025-11-19T00:27:52.538;599620016515829376;4743.87;294
2025-11-19T00:27:52.546;599620016523503616;4751.5444;337
2025-11-19T00:27:52.554;599620016531177856;4759.2183;269
2025-11-19T00:27:52.561;599620016538852096;4766.8926;159
2025-11-19T00:27:52.569;599620016546526336;4774.567;22
2025-11-19T00:27:52.577;599620016554200576;4782.241;24
2025-11-19T00:27:52.584;599620016561874688;4789.915;159
2025-11-19T00:27:52.592;599620016569548928;4797.5894;157
2025-11-19T00:27:52.600;599620016577223168;4805.2637;154
2025-11-19T00:27:52.607;599620016584897408;4812.9385;354
2025-11-19T00:27:52.615;599620016592571648;4820.6123;362
2025-11-19T00:27:52.623;599620016600245888;4828.2866;114
2025-11-19T00:27:52.630;599620016607920128;4835.961;109
2025-11-19T00:27:52.638;599620016615594368;4843.635;272
2025-11-19T00:27:52.646;599620016623268608;4851.309;264
2025-11-19T00:27:52.653;599620016630942848;4858.9834;182
2025-11-19T00:27:52.661;599620016638617088;4866.6577;187
2025-11-19T00:27:52.669;599620016646291328;4874.332;247
2025-11-19T00:27:52.677;599620016653965568;4882.006;259
2025-11-19T00:27:52.684;599620016661639808;4889.68;259
2025-11-19T00:27:52.692;599620016669314048;4897.355;324
2025-11-19T00:27:52.700;599620016676988160;4905.029;329
2025-11-19T00:27:52.707;599620016684662400;4912.703;124
2025-11-19T00:27:52.715;599620016692336640;4920.3774;-92
2025-11-19T00:27:52.723;599620016700010880;4928.0513;39
2025-11-19T00:27:52.730;599620016707685120;4935.7256;372
2025-11-19T00:27:52.738;599620016715359360;4943.4;512
2025-11-19T00:27:52.746;599620016723033600;4951.074;464
2025-11-19T00:27:52.753;599620016730707840;4958.7485;429
2025-11-19T00:27:52.761;599620016738382080;4966.4224;362
2025-11-19T00:27:52.769;599620016746056320;4974.0967;292
2025-11-19T00:27:52.776;599620016753730560;4981.7715;412
2025-11-19T00:27:52.784;599620016761404800;4989.4453;544
2025-11-19T00:27:52.792;599620016769079040;4997.1196;517
2025-11-19T00:27:52.799;599620016776753280;5004.794;467
2025-11-19T00:27:52.807;599620016784427520;5012.4683;419
2025-11-19T00:27:52.815;599620016792101760;5020.1426;382
2025-11-19T00:27:52.822;599620016799775872;5027.8164;339
2025-11-19T00:27:52.830;599620016807450184;5035.4907;327
2025-11-19T00:27:52.838;599620016815124224;5043.1646;502
2025-11-19T00:27:52.845;599620016822798208;5050.839;654
2025-11-19T00:27:52.853;599620016830472192;5058.5127;547
2025-11-19T00:27:52.861;599620016838146048;5066.1865;404
2025-11-19T00:27:52.868;599620016845820032;5073.861;417
2025-11-19T00:27:52.876;599620016853494016;5081.5347;454
2025-11-19T00:27:52.884;599620016861168000;5089.2085;334
2025-11-19T00:27:52.891;599620016868841856;5096.8823;154
2025-11-19T00:27:52.899;599620016876515840;5104.5566;157
2025-11-19T00:27:52.907;599620016884189824;5112.2305;254
2025-11-19T00:27:52.914;599620016891863808;5119.9043;247
2025-11-19T00:27:52.922;599620016899537664;5127.578;112
2025-11-19T00:27:52.930;599620016907211648;5135.2524;-19
2025-11-19T00:27:52.937;599620016914885632;5142.9263;-67
2025-11-19T00:27:52.945;599620016922559616;5150.6;-139
2025-11-19T00:27:52.953;599620016930233472;5158.274;-199
2025-11-19T00:27:52.960;599620016937907456;5165.9478;-147
2025-11-19T00:27:52.968;599620016945581440;5173.6216;-167
2025-11-19T00:27:52.976;599620016953255424;5181.296;-257
2025-11-19T00:27:52.983;599620016960929280;5188.97;-204
2025-11-19T00:27:52.991;599620016968603264;5196.644;-102
2025-11-19T00:27:52.999;599620016976277248;5204.318;-99
2025-11-19T00:27:53.006;599620016983951232;5211.992;-102
2025-11-19T00:27:53.014;599620016991625088;5219.666;-44
2025-11-19T00:27:53.022;599620016999299072;5227.34;-17
2025-11-19T00:27:53.030;599620017006973056;5235.0137;-64
2025-11-19T00:27:53.037;599620017014647040;5242.6875;-104
2025-11-19T00:27:53.045;599620017022320896;5250.3613;-104
2025-11-19T00:27:53.053;599620017029994880;5258.035;-119
2025-11-19T00:27:53.060;599620017037668864;5265.7095;-144
2025-11-19T00:27:53.068;599620017045342848;5273.3833;-174
2025-11-19T00:27:53.076;599620017053016832;5281.057;-182
2025-11-19T00:27:53.083;599620017060690688;5288.731;-177
2025-11-19T00:27:53.091;599620017068364672;5296.4053;-199
2025-11-19T00:27:53.099;599620017076038656;5304.0796;-224
2025-11-19T00:27:53.106;599620017083712640;5311.7534;-262
2025-11-19T00:27:53.114;599620017091386496;5319.4272;-264
2025-11-19T00:27:53.122;599620017099060480;5327.101;-239
2025-11-19T00:27:53.129;599620017106734464;5334.775;-229
2025-11-19T00:27:53.137;599620017114408448;5342.449;-144
2025-11-19T00:27:53.145;599620017122082304;5350.123;-32
2025-11-19T00:27:53.152;599620017129756288;5357.797;-47
2025-11-19T00:27:53.160;599620017137430272;5365.4707;-149
2025-11-19T00:27:53.168;599620017145104256;5373.145;-137
2025-11-19T00:27:53.175;599620017152778112;5380.819;12
2025-11-19T00:27:53.183;599620017160452096;5388.4927;32
2025-11-19T00:27:53.191;599620017168126080;5396.1665;-107
2025-11-19T00:27:53.198;599620017175800064;5403.8403;-94
2025-11-19T00:27:53.206;599620017183473920;5411.514;17
2025-11-19T00:27:53.214;599620017191147904;5419.188;-19
2025-11-19T00:27:53.221;599620017198821888;5426.863;-57
2025-11-19T00:27:53.229;599620017206495872;5434.5366;17
2025-11-19T00:27:53.237;599620017214169728;5442.2104;74
2025-11-19T00:27:53.244;599620017221843712;5449.8843;122
2025-11-19T00:27:53.252;599620017229517696;5457.5586;187
2025-11-19T00:27:53.260;599620017237191680;5465.2324;204
2025-11-19T00:27:53.267;599620017244865664;5472.9062;82
2025-11-19T00:27:53.275;599620017252539520;5480.58;-234
2025-11-19T00:27:53.283;599620017260213504;5488.254;-599
2025-11-19T00:27:53.290;599620017267887488;5495.9277;-494
2025-11-19T00:27:53.298;599620017275561472;5503.602;-57
2025-11-19T00:27:53.306;599620017283235328;5511.276;-12
2025-11-19T00:27:53.313;599620017290909312;5518.9497;-79
2025-11-19T00:27:53.321;599620017298583296;5526.6235;79
2025-11-19T00:27:53.329;599620017306257280;5534.2983;162
2025-11-19T00:27:53.336;599620017313931136;5541.972;117
2025-11-19T00:27:53.344;599620017321605120;5549.646;52
2025-11-19T00:27:53.352;599620017329279104;5557.32;-32
2025-11-19T00:27:53.359;599620017336953088;5564.9937;-24
2025-11-19T00:27:53.367;599620017344626944;5572.6675;57
2025-11-19T00:27:53.375;599620017352300928;5580.3413;42
2025-11-19T00:27:53.383;599620017359974912;5588.0156;104
2025-11-19T00:27:53.390;599620017367648764;5595.6895;357
2025-11-19T00:27:53.398;599620017375323008;5603.364;499
2025-11-19T00:27:53.406;599620017382997248;5611.0376;509
2025-11-19T00:27:53.413;599620017390671616;5618.712;529
2025-11-19T00:27:53.421;599620017398345856;5626.386;372
2025-11-19T00:27:53.429;599620017406020224;5634.061;197
2025-11-19T00:27:53.436;599620017413694464;5641.7354;334
2025-11-19T00:27:53.444;599620017421368832;5649.4097;422
2025-11-19T00:27:53.452;599620017429043072;5657.084;292
2025-11-19T00:27:53.459;599620017436717440;5664.758;227
2025-11-19T00:27:53.467;599620017444391680;5672.432;182
2025-11-19T00:27:53.475;599620017452066048;5680.1064;119
2025-11-19T00:27:53.482;599620017459740288;5687.781;154
2025-11-19T00:27:53.490;599620017467414656;5695.455;219
2025-11-19T00:27:53.498;599620017475088896;5703.1294;219
2025-11-19T00:27:53.505;599620017482763264;5710.804;237
2025-11-19T00:27:53.513;599620017490437504;5718.478;297
2025-11-19T00:27:53.521;599620017498111872;5726.153;314
2025-11-19T00:27:53.528;599620017505786112;5733.8267;312
2025-11-19T00:27:53.536;599620017513460480;5741.501;347
2025-11-19T00:27:53.544;599620017521134720;5749.1753;374
2025-11-19T00:27:53.551;599620017528809088;5756.8496;367
2025-11-19T00:27:53.559;599620017536483328;5764.524;329
2025-11-19T00:27:53.567;599620017544157696;5772.198;249
2025-11-19T00:27:53.574;599620017551831936;5779.8726;209
2025-11-19T00:27:53.582;599620017559506304;5787.5464;222
2025-11-19T00:27:53.590;599620017567180544;5795.221;187
2025-11-19T00:27:53.597;599620017574854912;5802.8955;157
2025-11-19T00:27:53.605;599620017582529152;5810.57;192
2025-11-19T00:27:53.613;599620017590203392;5818.244;174
2025-11-19T00:27:53.620;599620017597877760;5825.9185;127
2025-11-19T00:27:53.628;599620017605552000;5833.593;154
2025-11-19T00:27:53.636;599620017613226368;5841.2666;192
2025-11-19T00:27:53.643;599620017620900608;5848.941;89
2025-11-19T00:27:53.651;599620017628574976;5856.615;-12
2025-11-19T00:27:53.659;599620017636249216;5864.2896;67
2025-11-19T00:27:53.666;599620017643923584;5871.9644;52
2025-11-19T00:27:53.674;599620017651597824;5879.6387;-94
2025-11-19T00:27:53.682;599620017659272192;5887.313;-84
2025-11-19T00:27:53.689;599620017666946432;5894.987;-44
2025-11-19T00:27:53.697;599620017674620800;5902.6616;-157
2025-11-19T00:27:53.705;599620017682295040;5910.3354;-204
2025-11-19T00:27:53.713;599620017689969408;5918.01;-127
2025-11-19T00:27:53.720;599620017697643648;5925.684;-119
2025-11-19T00:27:53.728;599620017705318016;5933.3584;-222
2025-11-19T00:27:53.736;599620017712992256;5941.033;-319
2025-11-19T00:27:53.743;599620017720666624;5948.7075;-299
2025-11-19T00:27:53.751;599620017728340864;5956.382;-259
2025-11-19T00:27:53.759;599620017736015232;5964.0557;-294
2025-11-19T00:27:53.766;599620017743689472;5971.73;-287
2025-11-19T00:27:53.774;599620017751363840;5979.4043;-177
2025-11-19T00:27:53.782;599620017759038080;5987.0786;-177
2025-11-19T00:27:53.789;599620017766712448;5994.753;-254
2025-11-19T00:27:53.797;599620017774386688;6002.4272;-122
2025-11-19T00:27:53.805;599620017782060928;6010.1016;97
2025-11-19T00:27:53.812;599620017789735296;6017.7754;159
2025-11-19T00:27:53.820;599620017797409536;6025.45;122
2025-11-19T00:27:53.828;599620017805083904;6033.1245;102
2025-11-19T00:27:53.835;599620017812758144;6040.799;87
2025-11-19T00:27:53.843;599620017820432512;6048.473;99
2025-11-19T00:27:53.851;599620017828106752;6056.1475;147
2025-11-19T00:27:53.858;599620017835781120;6063.822;92
2025-11-19T00:27:53.866;599620017843455360;6071.4956;-12
2025-11-19T00:27:53.874;599620017851129728;6079.1704;-32
2025-11-19T00:27:53.881;599620017858803968;6086.844;7
2025-11-19T00:27:53.889;599620017866478336;6094.5186;37
2025-11-19T00:27:53.897;599620017874152576;6102.1934;24
2025-11-19T00:27:53.904;599620017881826944;6109.8677;34
2025-11-19T00:27:53.912;599620017889501184;6117.542;109
2025-11-19T00:27:53.920;599620017897175552;6125.2163;129
2025-11-19T00:27:53.927;599620017904849792;6132.8906;27
2025-11-19T00:27:53.935;599620017912524160;6140.5645;-62
2025-11-19T00:27:53.943;599620017920198400;6148.239;-49
2025-11-19T00:27:53.950;599620017927872779;6155.913;-24
2025-11-19T00:27:53.958;599620017935546752;6163.587;-37
2025-11-19T00:27:53.966;599620017943220736;6171.261;-14
2025-11-19T00:27:53.973;599620017950894848;6178.935;74
2025-11-19T00:27:53.981;599620017958568832;6186.61;94
2025-11-19T00:27:53.989;599620017966242816;6194.2837;42
2025-11-19T00:27:53.996;599620017973916928;6201.9575;62
2025-11-19T00:27:54.004;599620017981590912;6209.6313;77
2025-11-19T00:27:54.012;599620017989264896;6217.3057;0
2025-11-19T00:27:54.019;599620017996938880;6224.9795;-44
2025-11-19T00:27:54.027;599620018004612992;6232.654;-27
2025-11-19T00:27:54.035;599620018012286976;6240.3276;-39
2025-11-19T00:27:54.043;599620018019960960;6248.0015;-87
2025-11-19T00:27:54.050;599620018027635072;6255.6753;-132
2025-11-19T00:27:54.058;599620018035309056;6263.3496;-139
2025-11-19T00:27:54.066;599620018042983040;6271.0234;-87
2025-11-19T00:27:54.073;599620018050657152;6278.6978;-9
2025-11-19T00:27:54.081;599620018058331136;6286.372;89
2025-11-19T00:27:54.089;599620018066005120;6294.046;162
2025-11-19T00:27:54.096;599620018073679104;6301.7197;124
2025-11-19T00:27:54.104;599620018081353216;6309.394;74
2025-11-19T00:27:54.112;599620018089027200;6317.068;102
2025-11-19T00:27:54.119;599620018096701184;6324.7417;124
2025-11-19T00:27:54.127;599620018104375296;6332.416;122
2025-11-19T00:27:54.135;599620018112049280;6340.09;107
2025-11-19T00:27:54.142;599620018119723264;6347.7637;104
2025-11-19T00:27:54.150;599620018127397376;6355.438;129
2025-11-19T00:27:54.158;599620018135071360;6363.112;124
2025-11-19T00:27:54.165;599620018142745344;6370.7856;84
2025-11-19T00:27:54.173;599620018150419328;6378.46;32
2025-11-19T00:27:54.181;599620018158093440;6386.134;-64
2025-11-19T00:27:54.188;599620018165767424;6393.808;-104
2025-11-19T00:27:54.196;599620018173441408;6401.482;-2
2025-11-19T00:27:54.204;599620018181115520;6409.1562;82
2025-11-19T00:27:54.211;599620018188789504;6416.83;129
2025-11-19T00:27:54.219;599620018196463488;6424.5044;237
2025-11-19T00:27:54.227;599620018204137600;6432.178;339
2025-11-19T00:27:54.234;599620018211811584;6439.852;324
2025-11-19T00:27:54.242;599620018219485568;6447.526;124
2025-11-19T00:27:54.250;599620018227159680;6455.2;-47
2025-11-19T00:27:54.257;599620018234833664;6462.874;14
2025-11-19T00:27:54.265;599620018242507648;6470.5483;84
2025-11-19T00:27:54.273;599620018250181632;6478.222;24
2025-11-19T00:27:54.280;599620018257855744;6485.896;-4
2025-11-19T00:27:54.288;599620018265529728;6493.57;12
2025-11-19T00:27:54.296;599620018273203712;6501.2446;-9
2025-11-19T00:27:54.303;599620018280877824;6508.9185;37
2025-11-19T00:27:54.311;599620018288551808;6516.593;67
2025-11-19T00:27:54.319;599620018296225792;6524.2666;-47
2025-11-19T00:27:54.326;599620018303899904;6531.9404;-72
2025-11-19T00:27:54.334;599620018311573888;6539.6143;14
2025-11-19T00:27:54.342;599620018319247872;6547.2886;27
2025-11-19T00:27:54.349;599620018326921856;6554.9624;0
2025-11-19T00:27:54.357;599620018334595968;6562.6367;19
2025-11-19T00:27:54.365;599620018342269952;6570.3105;107
2025-11-19T00:27:54.372;599620018349943936;6577.9844;197
2025-11-19T00:27:54.380;599620018357618048;6585.658;162
2025-11-19T00:27:54.388;599620018365292032;6593.3325;44
2025-11-19T00:27:54.396;599620018372966016;6601.007;-2
2025-11-19T00:27:54.403;599620018380640128;6608.681;2
2025-11-19T00:27:54.411;599620018388314112;6616.355;64
2025-11-19T00:27:54.419;599620018395988096;6624.029;144
2025-11-19T00:27:54.426;599620018403662208;6631.7026;79
2025-11-19T00:27:54.434;599620018411336192;6639.377;-39
2025-11-19T00:27:54.442;599620018419010176;6647.051;-124
2025-11-19T00:27:54.449;599620018426684160;6654.7246;-99
2025-11-19T00:27:54.457;599620018434358272;6662.399;17
2025-11-19T00:27:54.465;599620018442032256;6670.0728;-7
2025-11-19T00:27:54.472;599620018449706240;6677.7466;-87
2025-11-19T00:27:54.480;599620018457380352;6685.421;-27
2025-11-19T00:27:54.488;599620018465054336;6693.0947;37
2025-11-19T00:27:54.495;599620018472728320;6700.7686;19
2025-11-19T00:27:54.503;599620018480402432;6708.4434;-9
2025-11-19T00:27:54.511;599620018488076446;6716.117;2
2025-11-19T00:27:54.518;599620018495750400;6723.791;29
2025-11-19T00:27:54.526;599620018503424384;6731.465;32
2025-11-19T00:27:54.534;599620018511098496;6739.139;17
2025-11-19T00:27:54.541;599620018518772480;6746.813;0
2025-11-19T00:27:54.549;599620018526446464;6754.4873;4
2025-11-19T00:27:54.557;599620018534120576;6762.161;14
2025-11-19T00:27:54.564;599620018541794560;6769.835;-44
2025-11-19T00:27:54.572;599620018549468544;6777.509;-167
2025-11-19T00:27:54.580;599620018557142528;6785.183;-267
2025-11-19T00:27:54.587;599620018564816640;6792.857;-314
2025-11-19T00:27:54.595;599620018572490624;6800.5312;-272
2025-11-19T00:27:54.603;599620018580164608;6808.205;-187
2025-11-19T00:27:54.610;599620018587838720;6815.8794;-224
2025-11-19T00:27:54.618;599620018595512704;6823.553;-339
2025-11-19T00:27:54.626;599620018603186688;6831.2275;-362
2025-11-19T00:27:54.633;599620018610860800;6838.9014;-362
2025-11-19T00:27:54.641;599620018618534784;6846.5757;-354
2025-11-19T00:27:54.649;599620018626208768;6854.2495;-267
2025-11-19T00:27:54.656;599620018633882752;6861.9233;-177
2025-11-19T00:27:54.664;599620018641556864;6869.597;-157
2025-11-19T00:27:54.672;599620018649230848;6877.2715;-174
2025-11-19T00:27:54.679;599620018656904832;6884.9453;-147
2025-11-19T00:27:54.687;599620018664578944;6892.6196;-114
2025-11-19T00:27:54.695;599620018672252928;6900.2935;-139
2025-11-19T00:27:54.702;599620018679926912;6907.9673;-187
2025-11-19T00:27:54.710;599620018687601024;6915.641;-277
2025-11-19T00:27:54.718;599620018695275008;6923.316;-237
2025-11-19T00:27:54.725;599620018702948992;6930.9897;-62
2025-11-19T00:27:54.733;599620018710622976;6938.6636;-204
2025-11-19T00:27:54.741;599620018718297088;6946.338;-482
2025-11-19T00:27:54.749;599620018725971072;6954.0117;-349
2025-11-19T00:27:54.756;599620018733645056;6961.6855;-142
2025-11-19T00:27:54.764;599620018741319168;6969.36;-159
2025-11-19T00:27:54.772;599620018748993152;6977.0337;-107
2025-11-19T00:27:54.779;599620018756667136;6984.7075;-132
2025-11-19T00:27:54.787;599620018764341248;6992.382;-297
2025-11-19T00:27:54.795;599620018772015232;7000.0557;-297
2025-11-19T00:27:54.802;599620018779689216;7007.7295;-207
2025-11-19T00:27:54.810;599620018787363328;7015.404;-119
2025-11-19T00:27:54.818;599620018795037312;7023.078;-9
2025-11-19T00:27:54.825;599620018802711296;7030.752;0
2025-11-19T00:27:54.833;599620018810385280;7038.4263;-39
2025-11-19T00:27:54.841;599620018818059392;7046.1;-69
2025-11-19T00:27:54.848;599620018825733376;7053.774;-124
2025-11-19T00:27:54.856;599620018833407360;7061.4478;-239
2025-11-19T00:27:54.864;599620018841081472;7069.122;-402
2025-11-19T00:27:54.871;599620018848755456;7076.796;-387
2025-11-19T00:27:54.879;599620018856429440;7084.47;-229
2025-11-19T00:27:54.887;599620018864103552;7092.144;-207
2025-11-19T00:27:54.894;599620018871777536;7099.818;-259
2025-11-19T00:27:54.902;599620018879451520;7107.4917;-202
2025-11-19T00:27:54.910;599620018887125504;7115.166;-112
2025-11-19T00:27:54.917;599620018894799616;7122.84;-157
2025-11-19T00:27:54.925;599620018902473600;7130.5146;-267
2025-11-19T00:27:54.933;599620018910147584;7138.1885;-307
2025-11-19T00:27:54.940;599620018917821696;7145.8623;-279
2025-11-19T00:27:54.948;599620018925495680;7153.536;-204
2025-11-19T00:27:54.956;599620018933169664;7161.2104;-147
2025-11-19T00:27:54.963;599620018940843776;7168.8843;-154
2025-11-19T00:27:54.971;599620018948517760;7176.5586;-114
2025-11-19T00:27:54.979;599620018956191744;7184.2324;-42
2025-11-19T00:27:54.986;599620018963865856;7191.9062;-77
2025-11-19T00:27:54.994;599620018971539840;7199.58;-124
2025-11-19T00:27:55.002;599620018979213824;7207.2544;-92
2025-11-19T00:27:55.009;599620018986887808;7214.928;-37
2025-11-19T00:27:55.017;599620018994561920;7222.6025;87
2025-11-19T00:27:55.025;599620019002235904;7230.2764;302
2025-11-19T00:27:55.032;599620019009909888;7237.9507;462
2025-11-19T00:27:55.040;599620019017584000;7245.6245;457
2025-11-19T00:27:55.048;599620019025257984;7253.299;277
2025-11-19T00:27:55.055;599620019032931968;7260.9727;34
2025-11-19T00:27:55.063;599620019040606080;7268.647;2
2025-11-19T00:27:55.071;599620019048280113;7276.321;139
2025-11-19T00:27:55.078;599620019055954304;7283.9946;159
2025-11-19T00:27:55.086;599620019063628544;7291.669;77
2025-11-19T00:27:55.094;599620019071302912;7299.3433;-9
2025-11-19T00:27:55.102;599620019078977152;7307.0176;-39
2025-11-19T00:27:55.109;599620019086651520;7314.692;7
2025-11-19T00:27:55.117;599620019094325760;7322.3667;7
2025-11-19T00:27:55.125;599620019102000128;7330.041;-17
2025-11-19T00:27:55.132;599620019109674368;7337.715;-19
2025-11-19T00:27:55.140;599620019117348736;7345.3896;4
2025-11-19T00:27:55.148;599620019125022976;7353.0635;27
2025-11-19T00:27:55.155;599620019132697344;7360.738;64
2025-11-19T00:27:55.163;599620019140371584;7368.412;157
2025-11-19T00:27:55.171;599620019148045952;7376.0864;182
2025-11-19T00:27:55.178;599620019155720192;7383.7607;89
2025-11-19T00:27:55.186;599620019163394560;7391.435;12
2025-11-19T00:27:55.194;599620019171068800;7399.11;-29
2025-11-19T00:27:55.201;599620019178743168;7406.7837;-127
2025-11-19T00:27:55.209;599620019186417408;7414.458;-247
2025-11-19T00:27:55.217;599620019194091776;7422.1323;-157
2025-11-19T00:27:55.224;599620019201766016;7429.8066;89
2025-11-19T00:27:55.232;599620019209440384;7437.481;154
2025-11-19T00:27:55.240;599620019217114624;7445.1553;67
2025-11-19T00:27:55.247;599620019224788992;7452.8296;52
2025-11-19T00:27:55.255;599620019232463232;7460.5034;52
2025-11-19T00:27:55.263;599620019240137600;7468.178;2
2025-11-19T00:27:55.270;599620019247811840;7475.852;62
2025-11-19T00:27:55.278;599620019255486080;7483.527;174
2025-11-19T00:27:55.286;599620019263160448;7491.201;82
2025-11-19T00:27:55.293;599620019270834688;7498.8755;-104
2025-11-19T00:27:55.301;599620019278509056;7506.55;-177
2025-11-19T00:27:55.309;599620019286183296;7514.2236;-219
2025-11-19T00:27:55.316;599620019293857664;7521.8984;-257
2025-11-19T00:27:55.324;599620019301531904;7529.5723;-214
2025-11-19T00:27:55.332;599620019309206272;7537.2466;-134
2025-11-19T00:27:55.339;599620019316880512;7544.921;-79
2025-11-19T00:27:55.347;599620019324554880;7552.595;-42
2025-11-19T00:27:55.355;599620019332229120;7560.27;22
2025-11-19T00:27:55.362;599620019339903488;7567.9443;104
2025-11-19T00:27:55.370;599620019347577728;7575.6187;54
2025-11-19T00:27:55.378;599620019355252096;7583.2925;-104
2025-11-19T00:27:55.385;599620019362926336;7590.967;-199
2025-11-19T00:27:55.393;599620019370600704;7598.641;-207
2025-11-19T00:27:55.401;599620019378274944;7606.3154;-209
2025-11-19T00:27:55.408;599620019385949312;7613.9897;-324
2025-11-19T00:27:55.416;599620019393623552;7621.664;-392
2025-11-19T00:27:55.424;599620019401297920;7629.339;-237
2025-11-19T00:27:55.432;599620019408972160;7637.0127;-197
2025-11-19T00:27:55.439;599620019416646528;7644.6875;-587
2025-11-19T00:27:55.447;599620019424320768;7652.3613;-899
2025-11-19T00:27:55.455;599620019431995136;7660.0356;-549
2025-11-19T00:27:55.462;599620019439669376;7667.71;-252
2025-11-19T00:27:55.470;599620019447343744;7675.3843;-642
2025-11-19T00:27:55.478;599620019455017984;7683.0586;-926
2025-11-19T00:27:55.485;599620019462692224;7690.7324;-991
2025-11-19T00:27:55.493;599620019470366592;7698.407;-1613
2025-11-19T00:27:55.501;599620019478040832;7706.081;-1711
2025-11-19T00:27:55.508;599620019485715200;7713.756;-682
2025-11-19T00:27:55.516;599620019493389440;7721.43;-209
2025-11-19T00:27:55.524;599620019501063808;7729.1045;-469
2025-11-19T00:27:55.531;599620019508738048;7736.779;-579
2025-11-19T00:27:55.539;599620019516412416;7744.453;-674
2025-11-19T00:27:55.547;599620019524086656;7752.1274;-642
2025-11-19T00:27:55.554;599620019531761024;7759.8013;-507
2025-11-19T00:27:55.562;599620019539435264;7767.4756;-622
2025-11-19T00:27:55.570;599620019547109632;7775.15;-607
2025-11-19T00:27:55.577;599620019554783872;7782.824;-532
2025-11-19T00:27:55.585;599620019562458240;7790.499;-694
2025-11-19T00:27:55.593;599620019570132480;7798.1733;-647
2025-11-19T00:27:55.600;599620019577806848;7805.8477;-564
2025-11-19T00:27:55.608;599620019585481088;7813.5215;-589
2025-11-19T00:27:55.616;599620019593155456;7821.1963;-192
2025-11-19T00:27:55.623;599620019600829696;7828.87;57
2025-11-19T00:27:55.631;599620019608504124;7836.5444;-362
2025-11-19T00:27:55.639;599620019616178176;7844.2188;-654
2025-11-19T00:27:55.646;599620019623852288;7851.8926;-464
2025-11-19T00:27:55.654;599620019631526528;7859.567;-379
2025-11-19T00:27:55.662;599620019639200640;7867.2417;-537
2025-11-19T00:27:55.669;599620019646874880;7874.9155;-362
2025-11-19T00:27:55.677;599620019654548992;7882.59;-24
2025-11-19T00:27:55.685;599620019662223104;7890.2637;59
2025-11-19T00:27:55.692;599620019669897344;7897.938;54
2025-11-19T00:27:55.700;599620019677571456;7905.612;-37
2025-11-19T00:27:55.708;599620019685245696;7913.286;-42
2025-11-19T00:27:55.715;599620019692919808;7920.9604;154
2025-11-19T00:27:55.723;599620019700593920;7928.6343;77
2025-11-19T00:27:55.731;599620019708268160;7936.3086;-94
2025-11-19T00:27:55.738;599620019715942272;7943.983;122
2025-11-19T00:27:55.746;599620019723616384;7951.6567;244
2025-11-19T00:27:55.754;599620019731290624;7959.3315;92
2025-11-19T00:27:55.762;599620019738964736;7967.0054;82
2025-11-19T00:27:55.769;599620019746638976;7974.6797;142
2025-11-19T00:27:55.777;599620019754313088;7982.3535;144
2025-11-19T00:27:55.785;599620019761987200;7990.028;209
2025-11-19T00:27:55.792;599620019769661440;7997.702;227
2025-11-19T00:27:55.800;599620019777335552;8005.376;142
2025-11-19T00:27:55.808;599620019785009792;8013.0503;169
2025-11-19T00:27:55.815;599620019792683904;8020.7246;252
2025-11-19T00:27:55.823;599620019800358016;8028.3984;209
2025-11-19T00:27:55.831;599620019808032256;8036.0728;159
2025-11-19T00:27:55.838;599620019815706368;8043.7466;239
2025-11-19T00:27:55.846;599620019823380608;8051.4214;384
2025-11-19T00:27:55.854;599620019831054720;8059.095;492
2025-11-19T00:27:55.861;599620019838728832;8066.7695;479
2025-11-19T00:27:55.869;599620019846403072;8074.444;334
2025-11-19T00:27:55.877;599620019854077184;8082.1177;137
2025-11-19T00:27:55.884;599620019861751424;8089.792;112
2025-11-19T00:27:55.892;599620019869425536;8097.4663;252
2025-11-19T00:27:55.900;599620019877099648;8105.14;247
2025-11-19T00:27:55.907;599620019884773888;8112.8145;132
2025-11-19T00:27:55.915;599620019892448000;8120.4883;104
2025-11-19T00:27:55.923;599620019900122240;8128.1626;99
2025-11-19T00:27:55.930;599620019907796352;8135.837;119
2025-11-19T00:27:55.938;599620019915470464;8143.511;177
2025-11-19T00:27:55.946;599620019923144704;8151.1855;237
2025-11-19T00:27:55.953;599620019930818816;8158.8594;312
2025-11-19T00:27:55.961;599620019938492928;8166.5337;364
2025-11-19T00:27:55.969;599620019946167168;8174.208;422
2025-11-19T00:27:55.976;599620019953841280;8181.882;479
2025-11-19T00:27:55.984;599620019961515520;8189.556;452
2025-11-19T00:27:55.992;599620019969189632;8197.23;354
2025-11-19T00:27:55.999;599620019976863744;8204.904;299
2025-11-19T00:27:56.007;599620019984537984;8212.578;317
2025-11-19T00:27:56.015;599620019992212096;8220.253;349
2025-11-19T00:27:56.022;599620019999886336;8227.927;357
2025-11-19T00:27:56.030;599620020007560448;8235.601;247
2025-11-19T00:27:56.038;599620020015234560;8243.275;114
2025-11-19T00:27:56.045;599620020022908800;8250.949;192
2025-11-19T00:27:56.053;599620020030582912;8258.623;202
2025-11-19T00:27:56.061;599620020038257152;8266.298;-92
2025-11-19T00:27:56.068;599620020045931264;8273.972;-272
2025-11-19T00:27:56.076;599620020053605376;8281.646;-267
2025-11-19T00:27:56.084;599620020061279616;8289.32;-299
2025-11-19T00:27:56.091;599620020068953728;8296.994;-34
2025-11-19T00:27:56.099;599620020076627968;8304.669;399
2025-11-19T00:27:56.107;599620020084302080;8312.343;409
2025-11-19T00:27:56.115;599620020091976192;8320.017;217
2025-11-19T00:27:56.122;599620020099650432;8327.691;149
2025-11-19T00:27:56.130;599620020107324544;8335.365;162
2025-11-19T00:27:56.138;599620020114998656;8343.039;217
2025-11-19T00:27:56.145;599620020122672896;8350.713;119
2025-11-19T00:27:56.153;599620020130347008;8358.388;-77
2025-11-19T00:27:56.161;599620020138021248;8366.062;-64
2025-11-19T00:27:56.168;599620020145695360;8373.736;117
2025-11-19T00:27:56.176;599620020153369472;8381.41;172
2025-11-19T00:27:56.184;599620020161043712;8389.084;59
2025-11-19T00:27:56.191;599620020168717965;8396.759;57
2025-11-19T00:27:56.199;599620020176391936;8404.433;152
2025-11-19T00:27:56.207;599620020184065920;8412.106;139
2025-11-19T00:27:56.214;599620020191740032;8419.78;77
2025-11-19T00:27:56.222;599620020199414016;8427.454;54
2025-11-19T00:27:56.230;599620020207088000;8435.128;64
2025-11-19T00:27:56.237;599620020214762112;8442.803;104
2025-11-19T00:27:56.245;599620020222436096;8450.477;137
2025-11-19T00:27:56.253;599620020230110080;8458.151;152
2025-11-19T00:27:56.260;599620020237784064;8465.825;102
2025-11-19T00:27:56.268;599620020245458176;8473.499;-12
2025-11-19T00:27:56.276;599620020253132160;8481.173;-54
2025-11-19T00:27:56.283;599620020260806144;8488.847;-12
2025-11-19T00:27:56.291;599620020268480256;8496.5205;24
2025-11-19T00:27:56.299;599620020276154240;8504.195;42
2025-11-19T00:27:56.306;599620020283828224;8511.869;-42
2025-11-19T00:27:56.314;599620020291502336;8519.543;-159
2025-11-19T00:27:56.322;599620020299176320;8527.217;-87
2025-11-19T00:27:56.329;599620020306850304;8534.891;-9
2025-11-19T00:27:56.337;599620020314524288;8542.564;-139
2025-11-19T00:27:56.345;599620020322198400;8550.239;-147
2025-11-19T00:27:56.352;599620020329872384;8557.913;2
2025-11-19T00:27:56.360;599620020337546368;8565.587;-74
2025-11-19T00:27:56.368;599620020345220480;8573.261;-209
2025-11-19T00:27:56.375;599620020352894464;8580.936;-197
2025-11-19T00:27:56.383;599620020360568448;8588.609;-212
2025-11-19T00:27:56.391;599620020368242560;8596.283;-249
2025-11-19T00:27:56.398;599620020375916544;8603.957;-277
2025-11-19T00:27:56.406;599620020383590528;8611.631;-244
2025-11-19T00:27:56.414;599620020391264512;8619.305;-144
2025-11-19T00:27:56.421;599620020398938624;8626.979;-77
2025-11-19T00:27:56.429;599620020406612608;8634.652;-82
2025-11-19T00:27:56.437;599620020414286592;8642.327;-109
2025-11-19T00:27:56.445;599620020421960704;8650.001;-4
2025-11-19T00:27:56.452;599620020429634688;8657.675;167
2025-11-19T00:27:56.460;599620020437308672;8665.349;159
2025-11-19T00:27:56.468;599620020444982784;8673.023;62
2025-11-19T00:27:56.475;599620020452656768;8680.698;54
2025-11-19T00:27:56.483;599620020460330752;8688.372;24
2025-11-19T00:27:56.491;599620020468004864;8696.046;-79
2025-11-19T00:27:56.498;599620020475678848;8703.72;-99
2025-11-19T00:27:56.506;599620020483352832;8711.394;-57
2025-11-19T00:27:56.514;599620020491026816;8719.067;-104
2025-11-19T00:27:56.521;599620020498700928;8726.741;-139
2025-11-19T00:27:56.529;599620020506374912;8734.416;-47
2025-11-19T00:27:56.537;599620020514048896;8742.09;57
2025-11-19T00:27:56.544;599620020521723008;8749.764;74
2025-11-19T00:27:56.552;599620020529396992;8757.4375;59
2025-11-19T00:27:56.560;599620020537070976;8765.111;84
2025-11-19T00:27:56.567;599620020544745088;8772.786;162
2025-11-19T00:27:56.575;599620020552419072;8780.46;237
2025-11-19T00:27:56.583;599620020560093056;8788.134;227
2025-11-19T00:27:56.590;599620020567767040;8795.808;134
2025-11-19T00:27:56.598;599620020575441152;8803.481;-117
2025-11-19T00:27:56.606;599620020583115136;8811.155;-374
2025-11-19T00:27:56.613;599620020590789120;8818.829;-302
2025-11-19T00:27:56.621;599620020598463232;8826.504;-189
2025-11-19T00:27:56.629;599620020606137216;8834.178;-224
2025-11-19T00:27:56.636;599620020613811200;8841.852;-69
2025-11-19T00:27:56.644;599620020621485312;8849.525;107
2025-11-19T00:27:56.652;599620020629159296;8857.199;104
2025-11-19T00:27:56.659;599620020636833280;8864.873;192
2025-11-19T00:27:56.667;599620020644507392;8872.549;504
2025-11-19T00:27:56.675;599620020652181376;8880.223;809
2025-11-19T00:27:56.682;599620020659855360;8887.896;774
2025-11-19T00:27:56.690;599620020667529344;8895.57;437
2025-11-19T00:27:56.698;599620020675203456;8903.244;142
2025-11-19T00:27:56.705;599620020682877440;8910.918;167
2025-11-19T00:27:56.713;599620020690551424;8918.592;382
2025-11-19T00:27:56.721;599620020698225536;8926.267;399
2025-11-19T00:27:56.728;599620020705899520;8933.94;172
2025-11-19T00:27:56.736;599620020713573504;8941.614;24
2025-11-19T00:27:56.744;599620020721247616;8949.288;119
2025-11-19T00:27:56.751;599620020728921632;8956.962;272
2025-11-19T00:27:56.759;599620020736595584;8964.637;357
2025-11-19T00:27:56.767;599620020744269568;8972.311;362
2025-11-19T00:27:56.774;599620020751943680;8979.984;292
2025-11-19T00:27:56.782;599620020759617664;8987.658;249
2025-11-19T00:27:56.790;599620020767291648;8995.332;284
2025-11-19T00:27:56.798;599620020774965760;9003.006;244
2025-11-19T00:27:56.805;599620020782639744;9010.68;82
2025-11-19T00:27:56.813;599620020790313728;9018.3545;-49
2025-11-19T00:27:56.821;599620020797987712;9026.028;-49
2025-11-19T00:27:56.828;599620020805661824;9033.702;-14
2025-11-19T00:27:56.836;599620020813335808;9041.376;-44
2025-11-19T00:27:56.844;599620020821009792;9049.05;-69
2025-11-19T00:27:56.851;599620020828683904;9056.725;-19
2025-11-19T00:27:56.859;599620020836357888;9064.398;67
2025-11-19T00:27:56.867;599620020844031872;9072.072;119
2025-11-19T00:27:56.874;599620020851705984;9079.746;169
2025-11-19T00:27:56.882;599620020859379968;9087.421;279
2025-11-19T00:27:56.890;599620020867053952;9095.095;339
2025-11-19T00:27:56.897;599620020874727936;9102.769;324
2025-11-19T00:27:56.905;599620020882402048;9110.443;279
2025-11-19T00:27:56.913;599620020890076032;9118.117;117
2025-11-19T00:27:56.920;599620020897750016;9125.791;-2
2025-11-19T00:27:56.928;599620020905424128;9133.465;72
2025-11-19T00:27:56.936;599620020913098112;9141.139;82
2025-11-19T00:27:56.943;599620020920772096;9148.8125;-14
2025-11-19T00:27:56.951;599620020928446208;9156.487;2
2025-11-19T00:27:56.959;599620020936120192;9164.161;107
2025-11-19T00:27:56.966;599620020943794176;9171.835;127
2025-11-19T00:27:56.974;599620020951468160;9179.509;97
2025-11-19T00:27:56.982;599620020959142272;9187.183;112
2025-11-19T00:27:56.989;599620020966816256;9194.856;107
2025-11-19T00:27:56.997;599620020974490240;9202.53;24
2025-11-19T00:27:57.005;599620020982164352;9210.205;9
2025-11-19T00:27:57.012;599620020989838336;9217.879;142
2025-11-19T00:27:57.020;599620020997512320;9225.553;224
2025-11-19T00:27:57.028;599620021005186432;9233.227;162
2025-11-19T00:27:57.035;599620021012860416;9240.9;157
2025-11-19T00:27:57.043;599620021020534400;9248.575;222
2025-11-19T00:27:57.051;599620021028208512;9256.249;189
2025-11-19T00:27:57.058;599620021035882496;9263.923;124
2025-11-19T00:27:57.066;599620021043556480;9271.597;87
2025-11-19T00:27:57.074;599620021051230464;9279.2705;-7
2025-11-19T00:27:57.081;599620021058904576;9286.944;-92
2025-11-19T00:27:57.089;599620021066578560;9294.618;-77
2025-11-19T00:27:57.097;599620021074252544;9302.294;-52
2025-11-19T00:27:57.104;599620021081926656;9309.968;-57
2025-11-19T00:27:57.112;599620021089600640;9317.642;-34
2025-11-19T00:27:57.120;599620021097274624;9325.315;-44
2025-11-19T00:27:57.127;599620021104948736;9332.989;-62
2025-11-19T00:27:57.135;599620021112622720;9340.664;-32
2025-11-19T00:27:57.143;599620021120296704;9348.338;4
2025-11-19T00:27:57.151;599620021127970688;9356.012;-12
2025-11-19T00:27:57.158;599620021135644800;9363.686;-149
2025-11-19T00:27:57.166;599620021143318784;9371.359;-332
2025-11-19T00:27:57.174;599620021150992768;9379.033;-367
2025-11-19T00:27:57.181;599620021158666880;9386.707;-262
2025-11-19T00:27:57.189;599620021166340864;9394.382;-307
2025-11-19T00:27:57.197;599620021174014848;9402.056;-742
2025-11-19T00:27:57.204;599620021181688960;9409.7295;-1434
2025-11-19T00:27:57.212;599620021189362944;9417.403;-2046
2025-11-19T00:27:57.220;599620021197036928;9425.077;-2438
2025-11-19T00:27:57.227;599620021204711040;9432.752;-2513
2025-11-19T00:27:57.235;599620021212385024;9440.426;-2033
2025-11-19T00:27:57.243;599620021220059008;9448.1;-966
2025-11-19T00:27:57.250;599620021227732992;9455.773;-32
2025-11-19T00:27:57.258;599620021235407104;9463.447;12
2025-11-19T00:27:57.266;599620021243081088;9471.121;-267
2025-11-19T00:27:57.273;599620021250755072;9478.795;-322
2025-11-19T00:27:57.281;599620021258429184;9486.47;-322
2025-11-19T00:27:57.289;599620021266103168;9494.144;-224
2025-11-19T00:27:57.296;599620021273777152;9501.817;-132
2025-11-19T00:27:57.304;599620021281451264;9509.492;-254
2025-11-19T00:27:57.312;599620021289125299;9517.166;-424
2025-11-19T00:27:57.319;599620021296799232;9524.84;-474
2025-11-19T00:27:57.327;599620021304473216;9532.515;-559
2025-11-19T00:27:57.335;599620021312147328;9540.188;-659
2025-11-19T00:27:57.342;599620021319821312;9547.862;-784
2025-11-19T00:27:57.350;599620021327495296;9555.536;-1096
2025-11-19T00:27:57.358;599620021335169408;9563.21;-1319
2025-11-19T00:27:57.365;599620021342843392;9570.884;-1444
2025-11-19T00:27:57.373;599620021350517376;9578.558;-1224
2025-11-19T00:27:57.381;599620021358191360;9586.232;-459
2025-11-19T00:27:57.388;599620021365865472;9593.906;-372
2025-11-19T00:27:57.396;599620021373539456;9601.58;-834
2025-11-19T00:27:57.404;599620021381213440;9609.254;-964
2025-11-19T00:27:57.411;599620021388887552;9616.928;-1653
2025-11-19T00:27:57.419;599620021396561536;9624.603;-2028
2025-11-19T00:27:57.427;599620021404235520;9632.276;-464
2025-11-19T00:27:57.434;599620021411909632;9639.95;737
2025-11-19T00:27:57.442;599620021419583616;9647.624;137
2025-11-19T00:27:57.450;599620021427257600;9655.298;-84
2025-11-19T00:27:57.457;599620021434931584;9662.972;552
2025-11-19T00:27:57.465;599620021442605696;9670.6455;799
2025-11-19T00:27:57.473;599620021450279680;9678.32;597
2025-11-19T00:27:57.480;599620021457953664;9685.994;282
2025-11-19T00:27:57.488;599620021465627776;9693.668;-52
2025-11-19T00:27:57.496;599620021473301760;9701.342;-17
2025-11-19T00:27:57.504;599620021480975744;9709.016;377
2025-11-19T00:27:57.511;599620021488649856;9716.691;419
2025-11-19T00:27:57.519;599620021496323840;9724.365;189
2025-11-19T00:27:57.527;599620021503997824;9732.039;312
2025-11-19T00:27:57.534;599620021511671808;9739.713;517
2025-11-19T00:27:57.542;599620021519345920;9747.387;444
2025-11-19T00:27:57.550;599620021527019904;9755.061;384
2025-11-19T00:27:57.557;599620021534693888;9762.734;449
2025-11-19T00:27:57.565;599620021542368000;9770.409;469
2025-11-19T00:27:57.573;599620021550041984;9778.083;414
2025-11-19T00:27:57.580;599620021557715968;9785.757;412
2025-11-19T00:27:57.588;599620021565390080;9793.431;477
2025-11-19T00:27:57.596;599620021573064064;9801.1045;494
2025-11-19T00:27:57.603;599620021580738048;9808.778;467
2025-11-19T00:27:57.611;599620021588412160;9816.453;527
2025-11-19T00:27:57.619;599620021596086144;9824.127;632
2025-11-19T00:27:57.626;599620021603760128;9831.801;627
2025-11-19T00:27:57.634;599620021611434112;9839.475;517
2025-11-19T00:27:57.642;599620021619108224;9847.148;332
2025-11-19T00:27:57.649;599620021626782208;9854.822;147
2025-11-19T00:27:57.657;599620021634456192;9862.496;172
2025-11-19T00:27:57.665;599620021642130304;9870.171;319
2025-11-19T00:27:57.672;599620021649804288;9877.845;259
2025-11-19T00:27:57.680;599620021657478272;9885.519;114
2025-11-19T00:27:57.688;599620021665152384;9893.192;177
2025-11-19T00:27:57.695;599620021672826368;9900.866;287
2025-11-19T00:27:57.703;599620021680500352;9908.541;214
2025-11-19T00:27:57.711;599620021688174336;9916.215;172
2025-11-19T00:27:57.718;599620021695848448;9923.889;312
2025-11-19T00:27:57.726;599620021703522432;9931.563;342
2025-11-19T00:27:57.734;599620021711196416;9939.237;224
2025-11-19T00:27:57.741;599620021718870528;9946.911;164
2025-11-19T00:27:57.749;599620021726544512;9954.585;102
2025-11-19T00:27:57.757;599620021734218496;9962.26;49
2025-11-19T00:27:57.764;599620021741892608;9969.934;92
2025-11-19T00:27:57.772;599620021749566592;9977.607;194
2025-11-19T00:27:57.780;599620021757240576;9985.281;279
2025-11-19T00:27:57.787;599620021764914688;9992.955;234
2025-11-19T00:27:57.795;599620021772588672;10000.63;137
2025-11-19T00:27:57.803;599620021780262656;10008.304;162
2025-11-19T00:27:57.810;599620021787936640;10015.978;134
2025-11-19T00:27:57.818;599620021795610752;10023.651;-17
2025-11-19T00:27:57.826;599620021803284736;10031.325;-92
2025-11-19T00:27:57.833;599620021810958720;10038.999;-212
2025-11-19T00:27:57.841;599620021818632832;10046.673;-447
2025-11-19T00:27:57.849;599620021826306816;10054.348;-447
2025-11-19T00:27:57.857;599620021833980800;10062.021;-257
2025-11-19T00:27:57.864;599620021841654912;10069.695;-179
2025-11-19T00:27:57.872;599620021849328966;10077.369;-42
2025-11-19T00:27:57.880;599620021857003008;10085.043;317
2025-11-19T00:27:57.887;599620021864676992;10092.718;554
2025-11-19T00:27:57.895;599620021872351104;10100.392;514
2025-11-19T00:27:57.903;599620021880025088;10108.065;519
2025-11-19T00:27:57.910;599620021887699072;10115.739;632
2025-11-19T00:27:57.918;599620021895373184;10123.413;659
2025-11-19T00:27:57.926;599620021903047168;10131.087;612
2025-11-19T00:27:57.933;599620021910721152;10138.761;567
2025-11-19T00:27:57.941;599620021918395136;10146.437;527
2025-11-19T00:27:57.949;599620021926069248;10154.11;514
2025-11-19T00:27:57.956;599620021933743232;10161.784;487
2025-11-19T00:27:57.964;599620021941417216;10169.458;402
2025-11-19T00:27:57.972;599620021949091328;10177.132;397
2025-11-19T00:27:57.979;599620021956765312;10184.807;464
2025-11-19T00:27:57.987;599620021964439296;10192.48;417
2025-11-19T00:27:57.995;599620021972113408;10200.154;332
2025-11-19T00:27:58.002;599620021979787392;10207.828;389
2025-11-19T00:27:58.010;599620021987461376;10215.502;437
2025-11-19T00:27:58.018;599620021995135360;10223.176;324
2025-11-19T00:27:58.025;599620022002809472;10230.85;197
2025-11-19T00:27:58.033;599620022010483456;10238.524;149
2025-11-19T00:27:58.041;599620022018157440;10246.198;137
2025-11-19T00:27:58.048;599620022025831552;10253.872;144
2025-11-19T00:27:58.056;599620022033505536;10261.546;157
2025-11-19T00:27:58.064;599620022041179520;10269.22;109
2025-11-19T00:27:58.071;599620022048853632;10276.895;14
2025-11-19T00:27:58.079;599620022056527616;10284.568;-42
2025-11-19T00:27:58.087;599620022064201600;10292.242;-74
2025-11-19T00:27:58.094;599620022071875584;10299.916;-102
2025-11-19T00:27:58.102;599620022079549696;10307.59;-37
2025-11-19T00:27:58.110;599620022087223680;10315.264;69
2025-11-19T00:27:58.117;599620022094897664;10322.9375;74
2025-11-19T00:27:58.125;599620022102571776;10330.612;42
2025-11-19T00:27:58.133;599620022110245760;10338.286;44
2025-11-19T00:27:58.140;599620022117919744;10345.96;79
2025-11-19T00:27:58.148;599620022125593856;10353.635;134
2025-11-19T00:27:58.156;599620022133267840;10361.309;122
2025-11-19T00:27:58.163;599620022140941824;10368.982;94
2025-11-19T00:27:58.171;599620022148615936;10376.657;167
2025-11-19T00:27:58.179;599620022156289920;10384.331;214
2025-11-19T00:27:58.187;599620022163963904;10392.005;129
2025-11-19T00:27:58.194;599620022171637888;10399.679;79
2025-11-19T00:27:58.202;599620022179312000;10407.353;109
2025-11-19T00:27:58.210;599620022186985984;10415.026;64
2025-11-19T00:27:58.217;599620022194659968;10422.7;-17
2025-11-19T00:27:58.225;599620022202334080;10430.375;-27
2025-11-19T00:27:58.233;599620022210008064;10438.049;7
2025-11-19T00:27:58.240;599620022217682048;10445.723;172
2025-11-19T00:27:58.248;599620022225356160;10453.396;439
2025-11-19T00:27:58.256;599620022233030144;10461.07;514
2025-11-19T00:27:58.263;599620022240704128;10468.745;349
2025-11-19T00:27:58.271;599620022248378112;10476.419;79
2025-11-19T00:27:58.279;599620022256052224;10484.093;-137
2025-11-19T00:27:58.286;599620022263726208;10491.767;-147
2025-11-19T00:27:58.294;599620022271400192;10499.44;-147
2025-11-19T00:27:58.302;599620022279074304;10507.114;-164
2025-11-19T00:27:58.309;599620022286748288;10514.788;-42
2025-11-19T00:27:58.317;599620022294422272;10522.463;54
2025-11-19T00:27:58.325;599620022302096384;10530.137;27
2025-11-19T00:27:58.332;599620022309770368;10537.811;27
2025-11-19T00:27:58.340;599620022317444352;10545.484;112
2025-11-19T00:27:58.348;599620022325118464;10553.158;142
2025-11-19T00:27:58.355;599620022332792448;10560.834;92
2025-11-19T00:27:58.363;599620022340466432;10568.508;67
2025-11-19T00:27:58.371;599620022348140416;10576.182;119
2025-11-19T00:27:58.378;599620022355814528;10583.855;224
2025-11-19T00:27:58.386;599620022363488512;10591.529;259
2025-11-19T00:27:58.394;599620022371162496;10599.203;202
2025-11-19T00:27:58.401;599620022378836608;10606.877;167
2025-11-19T00:27:58.409;599620022386510592;10614.552;152
2025-11-19T00:27:58.417;599620022394184576;10622.226;134
2025-11-19T00:27:58.424;599620022401858688;10629.899;97
2025-11-19T00:27:58.432;599620022409532633;10637.573;42
2025-11-19T00:27:58.440;599620022417206656;10645.247;47
2025-11-19T00:27:58.447;599620022424880640;10652.921;62
2025-11-19T00:27:58.455;599620022432554752;10660.596;9
2025-11-19T00:27:58.463;599620022440228736;10668.27;-14
2025-11-19T00:27:58.470;599620022447902720;10675.943;24
2025-11-19T00:27:58.478;599620022455576832;10683.617;67
2025-11-19T00:27:58.486;599620022463250816;10691.291;84
2025-11-19T00:27:58.493;599620022470924800;10698.965;64
2025-11-19T00:27:58.501;599620022478598784;10706.639;27
2025-11-19T00:27:58.509;599620022486272896;10714.313;-44
2025-11-19T00:27:58.516;599620022493946880;10721.987;-222
2025-11-19T00:27:58.524;599620022501620864;10729.661;-479
2025-11-19T00:27:58.532;599620022509294976;10737.335;-609
2025-11-19T00:27:58.540;599620022516968960;10745.009;-532
2025-11-19T00:27:58.547;599620022524642944;10752.684;-592
2025-11-19T00:27:58.555;599620022532317056;10760.357;-769
2025-11-19T00:27:58.563;599620022539991040;10768.032;-677
2025-11-19T00:27:58.570;599620022547665024;10775.706;-712
2025-11-19T00:27:58.578;599620022555339008;10783.38;-944
2025-11-19T00:27:58.586;599620022563013120;10791.054;-831
2025-11-19T00:27:58.593;599620022570687104;10798.728;-774
2025-11-19T00:27:58.601;599620022578361088;10806.402;-911
2025-11-19T00:27:58.609;599620022586035200;10814.076;-747
2025-11-19T00:27:58.616;599620022593709184;10821.75;-554
2025-11-19T00:27:58.624;599620022601383168;10829.424;-642
2025-11-19T00:27:58.632;599620022609057280;10837.098;-684
2025-11-19T00:27:58.639;599620022616731264;10844.772;-384
2025-11-19T00:27:58.647;599620022624405248;10852.446;-234
2025-11-19T00:27:58.655;599620022632079232;10860.12;-527
2025-11-19T00:27:58.662;599620022639753344;10867.794;-724
2025-11-19T00:27:58.670;599620022647427328;10875.468;-627
2025-11-19T00:27:58.678;599620022655101312;10883.142;-219
2025-11-19T00:27:58.685;599620022662775424;10890.815;227
2025-11-19T00:27:58.693;599620022670449408;10898.49;214
2025-11-19T00:27:58.701;599620022678123392;10906.164;9
2025-11-19T00:27:58.708;599620022685797504;10913.838;7
2025-11-19T00:27:58.716;599620022693471488;10921.512;29
2025-11-19T00:27:58.724;599620022701145472;10929.186;-177
2025-11-19T00:27:58.731;599620022708819584;10936.86;-394
2025-11-19T00:27:58.739;599620022716493568;10944.534;-369
2025-11-19T00:27:58.747;599620022724167552;10952.208;-297
2025-11-19T00:27:58.754;599620022731841536;10959.882;-317
2025-11-19T00:27:58.762;599620022739515648;10967.556;-432
2025-11-19T00:27:58.770;599620022747189632;10975.2295;-429
2025-11-19T00:27:58.777;599620022754863616;10982.903;-172
2025-11-19T00:27:58.785;599620022762537728;10990.579;-62
2025-11-19T00:27:58.793;599620022770211712;10998.253;-144
2025-11-19T00:27:58.800;599620022777885696;11005.927;-189
2025-11-19T00:27:58.808;599620022785559808;11013.601;-244
2025-11-19T00:27:58.816;599620022793233792;11021.274;-279
2025-11-19T00:27:58.823;599620022800907776;11028.948;-357
2025-11-19T00:27:58.831;599620022808581760;11036.623;-409
2025-11-19T00:27:58.839;599620022816255872;11044.297;-269
2025-11-19T00:27:58.846;599620022823929856;11051.971;-299
2025-11-19T00:27:58.854;599620022831603840;11059.645;-507
2025-11-19T00:27:58.862;599620022839277952;11067.318;-552
2025-11-19T00:27:58.869;599620022846951936;11074.992;-684
2025-11-19T00:27:58.877;599620022854625920;11082.666;-894
2025-11-19T00:27:58.885;599620022862300032;11090.341;-909
2025-11-19T00:27:58.893;599620022869974016;11098.015;-769
2025-11-19T00:27:58.900;599620022877648000;11105.688;-767
2025-11-19T00:27:58.908;599620022885322112;11113.362;-921
2025-11-19T00:27:58.916;599620022892996096;11121.036;-609
2025-11-19T00:27:58.923;599620022900670080;11128.711;-129
2025-11-19T00:27:58.931;599620022908344064;11136.385;-212
2025-11-19T00:27:58.939;599620022916018176;11144.059;-407
2025-11-19T00:27:58.946;599620022923692160;11151.732;-217
2025-11-19T00:27:58.954;599620022931366144;11159.406;-4
2025-11-19T00:27:58.962;599620022939040256;11167.08;-62
2025-11-19T00:27:58.969;599620022946714240;11174.754;-112
2025-11-19T00:27:58.977;599620022954388224;11182.429;-64
2025-11-19T00:27:58.985;599620022962062336;11190.104;-104
2025-11-19T00:27:58.992;599620022969736300;11197.777;-254
2025-11-19T00:27:59.000;599620022977410560;11205.451;-319
2025-11-19T00:27:59.008;599620022985084800;11213.126;-164
2025-11-19T00:27:59.015;599620022992759040;11220.8;-204
2025-11-19T00:27:59.023;599620023000433280;11228.474;-484
2025-11-19T00:27:59.031;599620023008107520;11236.148;-429
2025-11-19T00:27:59.038;599620023015781760;11243.822;-189
2025-11-19T00:27:59.046;599620023023456000;11251.497;-72
2025-11-19T00:27:59.054;599620023031130240;11259.171;119
2025-11-19T00:27:59.061;599620023038804352;11266.845;169
2025-11-19T00:27:59.069;599620023046478592;11274.52;-154
2025-11-19T00:27:59.077;599620023054152832;11282.193;-382
2025-11-19T00:27:59.084;599620023061827072;11289.867;-144
2025-11-19T00:27:59.092;599620023069501312;11297.542;124
2025-11-19T00:27:59.100;599620023077175552;11305.216;27
2025-11-19T00:27:59.107;599620023084849792;11312.89;-122
2025-11-19T00:27:59.115;599620023092524032;11320.564;-87
2025-11-19T00:27:59.123;599620023100198272;11328.238;-2
2025-11-19T00:27:59.130;599620023107872512;11335.913;102
2025-11-19T00:27:59.138;599620023115546752;11343.587;187
2025-11-19T00:27:59.146;599620023123220992;11351.261;234
2025-11-19T00:27:59.153;599620023130895232;11358.937;309
2025-11-19T00:27:59.161;599620023138569472;11366.61;359
2025-11-19T00:27:59.169;599620023146243712;11374.285;319
2025-11-19T00:27:59.176;599620023153917952;11381.959;322
2025-11-19T00:27:59.184;599620023161592064;11389.633;419
2025-11-19T00:27:59.192;599620023169266304;11397.307;424
2025-11-19T00:27:59.199;599620023176940544;11404.981;317
2025-11-19T00:27:59.207;599620023184614784;11412.655;272
2025-11-19T00:27:59.215;599620023192289024;11420.33;259
2025-11-19T00:27:59.223;599620023199963264;11428.004;234
2025-11-19T00:27:59.230;599620023207637504;11435.678;337
2025-11-19T00:27:59.238;599620023215311744;11443.353;432
2025-11-19T00:27:59.246;599620023222985984;11451.026;334
2025-11-19T00:27:59.253;599620023230660224;11458.701;244
2025-11-19T00:27:59.261;599620023238334464;11466.375;289
2025-11-19T00:27:59.269;599620023246008704;11474.049;394
2025-11-19T00:27:59.276;599620023253682944;11481.724;449
2025-11-19T00:27:59.284;599620023261357184;11489.397;252
2025-11-19T00:27:59.292;599620023269031424;11497.071;29
2025-11-19T00:27:59.299;599620023276705664;11504.746;67
2025-11-19T00:27:59.307;599620023284379776;11512.42;97
2025-11-19T00:27:59.315;599620023292054016;11520.094;99
2025-11-19T00:27:59.322;599620023299728256;11527.77;174
2025-11-19T00:27:59.330;599620023307402496;11535.443;102
2025-11-19T00:27:59.338;599620023315076736;11543.118;64
2025-11-19T00:27:59.345;599620023322750976;11550.792;224
2025-11-19T00:27:59.353;599620023330425216;11558.466;222
2025-11-19T00:27:59.361;599620023338099456;11566.141;99
2025-11-19T00:27:59.368;599620023345773696;11573.814;144
2025-11-19T00:27:59.376;599620023353447936;11581.488;214
2025-11-19T00:27:59.384;599620023361122176;11589.163;232
2025-11-19T00:27:59.391;599620023368796416;11596.837;297
2025-11-19T00:27:59.399;599620023376470656;11604.511;359
2025-11-19T00:27:59.407;599620023384144896;11612.186;324
2025-11-19T00:27:59.414;599620023391819136;11619.859;284
2025-11-19T00:27:59.422;599620023399493248;11627.534;297
2025-11-19T00:27:59.430;599620023407167488;11635.208;279
2025-11-19T00:27:59.437;599620023414841728;11642.882;329
2025-11-19T00:27:59.445;599620023422515968;11650.557;494
2025-11-19T00:27:59.453;599620023430190208;11658.23;547
2025-11-19T00:27:59.460;599620023437864448;11665.904;469
2025-11-19T00:27:59.468;599620023445538688;11673.579;467
2025-11-19T00:27:59.476;599620023453212928;11681.253;499
2025-11-19T00:27:59.483;599620023460887168;11688.927;477
2025-11-19T00:27:59.491;599620023468561408;11696.603;472
2025-11-19T00:27:59.499;599620023476235648;11704.276;512
2025-11-19T00:27:59.506;599620023483909888;11711.951;512
2025-11-19T00:27:59.514;599620023491584128;11719.625;412
2025-11-19T00:27:59.522;599620023499258368;11727.299;254
2025-11-19T00:27:59.529;599620023506932608;11734.974;174
2025-11-19T00:27:59.537;599620023514606848;11742.647;327
2025-11-19T00:27:59.545;599620023522280960;11750.321;462
2025-11-19T00:27:59.552;599620023529955224;11757.996;197
2025-11-19T00:27:59.560;599620023537629440;11765.67;17
2025-11-19T00:27:59.568;599620023545303680;11773.344;297
2025-11-19T00:27:59.576;599620023552977920;11781.019;359
2025-11-19T00:27:59.583;599620023560652160;11788.692;152
2025-11-19T00:27:59.591;599620023568326400;11796.367;189
2025-11-19T00:27:59.599;599620023576000640;11804.041;219
2025-11-19T00:27:59.606;599620023583674880;11811.715;79
2025-11-19T00:27:59.614;599620023591349120;11819.39;54
2025-11-19T00:27:59.622;599620023599023232;11827.063;132
2025-11-19T00:27:59.629;599620023606697472;11834.737;182
2025-11-19T00:27:59.637;599620023614371712;11842.412;197
2025-11-19T00:27:59.645;599620023622045952;11850.086;119
2025-11-19T00:27:59.652;599620023629720192;11857.761;2
2025-11-19T00:27:59.660;599620023637394432;11865.436;27
2025-11-19T00:27:59.668;599620023645068672;11873.109;279
2025-11-19T00:27:59.675;599620023652742912;11880.784;572
2025-11-19T00:27:59.683;599620023660417152;11888.458;662
2025-11-19T00:27:59.691;599620023668091392;11896.132;612
2025-11-19T00:27:59.698;599620023675765632;11903.807;644
2025-11-19T00:27:59.706;599620023683439872;11911.48;722
2025-11-19T00:27:59.714;599620023691114112;11919.155;667
2025-11-19T00:27:59.721;599620023698788352;11926.829;519
2025-11-19T00:27:59.729;599620023706462592;11934.503;464
2025-11-19T00:27:59.737;599620023714136832;11942.178;577
2025-11-19T00:27:59.744;599620023721810944;11949.852;694
2025-11-19T00:27:59.752;599620023729485184;11957.525;674
2025-11-19T00:27:59.760;599620023737159424;11965.2;594
2025-11-19T00:27:59.767;599620023744833664;11972.874;517
2025-11-19T00:27:59.775;599620023752507904;11980.548;474
2025-11-19T00:27:59.783;599620023760182144;11988.223;422
2025-11-19T00:27:59.790;599620023767856384;11995.896;342
2025-11-19T00:27:59.798;599620023775530624;12003.571;357
2025-11-19T00:27:59.806;599620023783204864;12011.245;447
2025-11-19T00:27:59.813;599620023790879104;12018.919;377
2025-11-19T00:27:59.821;599620023798553344;12026.595;224
2025-11-19T00:27:59.829;599620023806227584;12034.269;297
2025-11-19T00:27:59.836;599620023813901824;12041.942;442
2025-11-19T00:27:59.844;599620023821576064;12049.617;472
2025-11-19T00:27:59.852;599620023829250304;12057.291;599
2025-11-19T00:27:59.859;599620023836924544;12064.965;734
2025-11-19T00:27:59.867;599620023844598656;12072.64;557
2025-11-19T00:27:59.875;599620023852272896;12080.313;224
2025-11-19T00:27:59.882;599620023859947136;12087.988;172
2025-11-19T00:27:59.890;599620023867621376;12095.662;359
2025-11-19T00:27:59.898;599620023875295616;12103.336;409
2025-11-19T00:27:59.906;599620023882969856;12111.011;349
2025-11-19T00:27:59.913;599620023890644096;12118.685;354
2025-11-19T00:27:59.921;599620023898318336;12126.358;319
2025-11-19T00:27:59.929;599620023905992576;12134.033;227
2025-11-19T00:27:59.936;599620023913666816;12141.707;164
2025-11-19T00:27:59.944;599620023921341056;12149.381;184
2025-11-19T00:27:59.952;599620023929015296;12157.056;277
2025-11-19T00:27:59.959;599620023936689536;12164.7295;289
2025-11-19T00:27:59.967;599620023944363776;12172.404;204
2025-11-19T00:27:59.975;599620023952038016;12180.078;152
2025-11-19T00:27:59.982;599620023959712256;12187.753;119
2025-11-19T00:27:59.990;599620023967386368;12195.428;84
2025-11-19T00:27:59.998;599620023975060608;12203.102;89
2025-11-19T00:28:00.005;599620023982734848;12210.775;107
2025-11-19T00:28:00.013;599620023990409088;12218.45;92
2025-11-19T00:28:00.021;599620023998083328;12226.124;97
2025-11-19T00:28:00.028;599620024005757568;12233.798;199
2025-11-19T00:28:00.036;599620024013431808;12241.473;307
2025-11-19T00:28:00.044;599620024021106048;12249.146;247
2025-11-19T00:28:00.051;599620024028780288;12256.821;67
2025-11-19T00:28:00.059;599620024036454528;12264.495;24
2025-11-19T00:28:00.067;599620024044128768;12272.169;94
2025-11-19T00:28:00.074;599620024051803008;12279.844;22
2025-11-19T00:28:00.082;599620024059477248;12287.518;-99
2025-11-19T00:28:00.090;599620024067151488;12295.192;-137
2025-11-19T00:28:00.097;599620024074825728;12302.866;-162
2025-11-19T00:28:00.105;599620024082499968;12310.54;-144
2025-11-19T00:28:00.113;599620024090174152;12318.215;-149
2025-11-19T00:28:00.120;599620024097848192;12325.889;-274
2025-11-19T00:28:00.128;599620024105522176;12333.5625;-324
2025-11-19T00:28:00.136;599620024113196288;12341.236;-282
2025-11-19T00:28:00.143;599620024120870272;12348.91;-349
2025-11-19T00:28:00.151;599620024128544256;12356.584;-419
2025-11-19T00:28:00.159;599620024136218368;12364.26;-434
2025-11-19T00:28:00.166;599620024143892352;12371.934;-427
2025-11-19T00:28:00.174;599620024151566336;12379.607;-429
2025-11-19T00:28:00.182;599620024159240320;12387.281;-537
2025-11-19T00:28:00.189;599620024166914432;12394.955;-579
2025-11-19T00:28:00.197;599620024174588416;12402.629;-452
2025-11-19T00:28:00.205;599620024182262400;12410.303;-362
2025-11-19T00:28:00.212;599620024189936512;12417.978;-339
2025-11-19T00:28:00.220;599620024197610496;12425.651;-277
2025-11-19T00:28:00.228;599620024205284480;12433.325;-212
2025-11-19T00:28:00.235;599620024212958592;12440.999;-214
2025-11-19T00:28:00.243;599620024220632576;12448.673;-242
2025-11-19T00:28:00.251;599620024228306560;12456.348;-244
2025-11-19T00:28:00.259;599620024235980544;12464.021;-232
2025-11-19T00:28:00.266;599620024243654656;12471.695;-212
2025-11-19T00:28:00.274;599620024251328640;12479.369;-197
2025-11-19T00:28:00.282;599620024259002624;12487.043;-152
2025-11-19T00:28:00.289;599620024266676736;12494.717;-67
2025-11-19T00:28:00.297;599620024274350720;12502.391;-82
2025-11-19T00:28:00.305;599620024282024704;12510.065;-192
2025-11-19T00:28:00.312;599620024289698816;12517.739;-209
2025-11-19T00:28:00.320;599620024297372800;12525.413;-179
2025-11-19T00:28:00.328;599620024305046784;12533.087;-162
2025-11-19T00:28:00.335;599620024312720768;12540.761;-154
2025-11-19T00:28:00.343;599620024320394880;12548.436;-222
2025-11-19T00:28:00.351;599620024328068864;12556.109;-259
2025-11-19T00:28:00.358;599620024335742848;12563.783;-222
2025-11-19T00:28:00.366;599620024343416960;12571.458;-244
2025-11-19T00:28:00.374;599620024351090944;12579.132;-274
2025-11-19T00:28:00.381;599620024358764928;12586.806;-222
2025-11-19T00:28:00.389;599620024366439040;12594.4795;-192
2025-11-19T00:28:00.397;599620024374113024;12602.154;-227
2025-11-19T00:28:00.404;599620024381787008;12609.828;-207
2025-11-19T00:28:00.412;599620024389461120;12617.502;-154
2025-11-19T00:28:00.420;599620024397135104;12625.176;-192
2025-11-19T00:28:00.427;599620024404809088;12632.85;-277
2025-11-19T00:28:00.435;599620024412483072;12640.523;-287
2025-11-19T00:28:00.443;599620024420157184;12648.198;-219
2025-11-19T00:28:00.450;599620024427831168;12655.872;-227
2025-11-19T00:28:00.458;599620024435505152;12663.546;-312
2025-11-19T00:28:00.466;599620024443179264;12671.22;-272
2025-11-19T00:28:00.473;599620024450853248;12678.894;-129
2025-11-19T00:28:00.481;599620024458527232;12686.567;-109
2025-11-19T00:28:00.489;599620024466201344;12694.242;-222
2025-11-19T00:28:00.496;599620024473875328;12701.916;-309
2025-11-19T00:28:00.504;599620024481549312;12709.59;-284
2025-11-19T00:28:00.512;599620024489223296;12717.264;-197
2025-11-19T00:28:00.519;599620024496897408;12724.9375;-142
2025-11-19T00:28:00.527;599620024504571392;12732.611;-117
2025-11-19T00:28:00.535;599620024512245376;12740.286;-22
2025-11-19T00:28:00.542;599620024519919488;12747.96;77
2025-11-19T00:28:00.550;599620024527593472;12755.634;29
2025-11-19T00:28:00.558;599620024535267456;12763.308;-77
2025-11-19T00:28:00.565;599620024542941568;12770.981;-129
2025-11-19T00:28:00.573;599620024550615552;12778.655;-182
2025-11-19T00:28:00.581;599620024558289536;12786.33;-247
2025-11-19T00:28:00.589;599620024565963648;12794.005;-262
2025-11-19T00:28:00.596;599620024573637632;12801.679;-202
2025-11-19T00:28:00.604;599620024581311616;12809.353;-144
2025-11-19T00:28:00.612;599620024588985600;12817.026;-134
2025-11-19T00:28:00.619;599620024596659712;12824.7;-134
2025-11-19T00:28:00.627;599620024604333696;12832.375;-132
2025-11-19T00:28:00.635;599620024612007680;12840.049;-89
2025-11-19T00:28:00.642;599620024619681792;12847.723;-27
2025-11-19T00:28:00.650;599620024627355776;12855.396;0
2025-11-19T00:28:00.658;599620024635029760;12863.07;119
2025-11-19T00:28:00.665;599620024642703872;12870.744;379
2025-11-19T00:28:00.673;599620024650377819;12878.418;442
2025-11-19T00:28:00.681;599620024658051840;12886.093;192
2025-11-19T00:28:00.688;599620024665725824;12893.767;-12
2025-11-19T00:28:00.696;599620024673399936;12901.44;19
2025-11-19T00:28:00.704;599620024681073920;12909.114;162
2025-11-19T00:28:00.711;599620024688747904;12916.788;209
2025-11-19T00:28:00.719;599620024696422016;12924.463;127
2025-11-19T00:28:00.727;599620024704096000;12932.137;7
2025-11-19T00:28:00.734;599620024711769984;12939.811;-44
2025-11-19T00:28:00.742;599620024719443968;12947.484;29
2025-11-19T00:28:00.750;599620024727118080;12955.158;117
2025-11-19T00:28:00.757;599620024734792064;12962.832;89
2025-11-19T00:28:00.765;599620024742466048;12970.506;89
2025-11-19T00:28:00.773;599620024750140160;12978.181;244
2025-11-19T00:28:00.780;599620024757814144;12985.8545;339
2025-11-19T00:28:00.788;599620024765488128;12993.529;252
2025-11-19T00:28:00.796;599620024773162240;13001.203;149
2025-11-19T00:28:00.803;599620024780836224;13008.877;179
2025-11-19T00:28:00.811;599620024788510208;13016.551;254
2025-11-19T00:28:00.819;599620024796184192;13024.226;242
2025-11-19T00:28:00.826;599620024803858304;13031.899;269
2025-11-19T00:28:00.834;599620024811532288;13039.573;397
2025-11-19T00:28:00.842;599620024819206272;13047.247;414
2025-11-19T00:28:00.849;599620024826880384;13054.921;304
2025-11-19T00:28:00.857;599620024834554368;13062.595;239
2025-11-19T00:28:00.865;599620024842228352;13070.269;337
2025-11-19T00:28:00.872;599620024849902464;13077.943;499
2025-11-19T00:28:00.880;599620024857576448;13085.617;474
2025-11-19T00:28:00.888;599620024865250432;13093.291;417
2025-11-19T00:28:00.895;599620024872924416;13100.965;527
2025-11-19T00:28:00.903;599620024880598528;13108.639;549
2025-11-19T00:28:00.911;599620024888272512;13116.313;454
2025-11-19T00:28:00.918;599620024895946496;13123.987;464
2025-11-19T00:28:00.926;599620024903620608;13131.661;489
2025-11-19T00:28:00.934;599620024911294592;13139.335;429
2025-11-19T00:28:00.942;599620024918968576;13147.009;322
2025-11-19T00:28:00.949;599620024926642688;13154.683;139
2025-11-19T00:28:00.957;599620024934316672;13162.356;54
2025-11-19T00:28:00.965;599620024941990656;13170.031;157
2025-11-19T00:28:00.972;599620024949664768;13177.705;139
2025-11-19T00:28:00.980;599620024957338752;13185.379;-29
2025-11-19T00:28:00.988;599620024965012736;13193.053;-7
2025-11-19T00:28:00.995;599620024972686720;13200.727;154
2025-11-19T00:28:01.003;599620024980360832;13208.402;47
2025-11-19T00:28:01.011;599620024988034816;13216.076;-377
2025-11-19T00:28:01.018;599620024995708800;13223.75;-704
2025-11-19T00:28:01.026;599620025003382912;13231.424;-574
2025-11-19T00:28:01.034;599620025011056896;13239.098;-279
2025-11-19T00:28:01.041;599620025018730880;13246.771;-207
2025-11-19T00:28:01.049;599620025026404992;13254.445;-219
2025-11-19T00:28:01.057;599620025034078976;13262.12;-202
2025-11-19T00:28:01.064;599620025041752960;13269.794;-139
2025-11-19T00:28:01.072;599620025049426944;13277.468;-37
2025-11-19T00:28:01.080;599620025057101056;13285.142;-29
2025-11-19T00:28:01.087;599620025064775040;13292.815;-307
2025-11-19T00:28:01.095;599620025072449024;13300.489;-1236
2025-11-19T00:28:01.103;599620025080123136;13308.164;-2003
2025-11-19T00:28:01.110;599620025087797120;13315.838;-1566
2025-11-19T00:28:01.118;599620025095471104;13323.512;-1863
2025-11-19T00:28:01.126;599620025103145216;13331.186;-3302
2025-11-19T00:28:01.133;599620025110819200;13338.859;-2925
2025-11-19T00:28:01.141;599620025118493184;13346.533;-1009
2025-11-19T00:28:01.149;599620025126167296;13354.208;-62
2025-11-19T00:28:01.156;599620025133841280;13361.882;-157
2025-11-19T00:28:01.164;599620025141515264;13369.556;-419
2025-11-19T00:28:01.172;599620025149189248;13377.2295;-597
2025-11-19T00:28:01.179;599620025156863360;13384.903;-407
2025-11-19T00:28:01.187;599620025164537344;13392.577;-179
2025-11-19T00:28:01.195;599620025172211328;13400.252;-477
2025-11-19T00:28:01.202;599620025179885440;13407.927;-854
2025-11-19T00:28:01.210;599620025187559424;13415.601;-779
2025-11-19T00:28:01.218;599620025195233408;13423.274;-474
2025-11-19T00:28:01.225;599620025202907520;13430.948;-244
2025-11-19T00:28:01.233;599620025210581486;13438.622;-109
2025-11-19T00:28:01.241;599620025218255488;13446.296;-172
2025-11-19T00:28:01.248;599620025225929472;13453.971;-522
2025-11-19T00:28:01.256;599620025233603584;13461.645;-697
2025-11-19T00:28:01.264;599620025241277568;13469.318;-237
2025-11-19T00:28:01.271;599620025248951552;13476.992;324
2025-11-19T00:28:01.279;599620025256625664;13484.666;329
2025-11-19T00:28:01.287;599620025264299648;13492.341;-1431
2025-11-19T00:28:01.295;599620025271973632;13500.015;-6056
2025-11-19T00:28:01.302;599620025279647616;13507.688;-9346
2025-11-19T00:28:01.310;599620025287321728;13515.362;-7330
2025-11-19T00:28:01.318;599620025294995712;13523.036;-2538
2025-11-19T00:28:01.325;599620025302669696;13530.71;702
2025-11-19T00:28:01.333;599620025310343808;13538.384;-302
2025-11-19T00:28:01.341;599620025318017792;13546.059;-2563
2025-11-19T00:28:01.348;599620025325691776;13553.732;-2463
2025-11-19T00:28:01.356;599620025333365888;13561.406;-1536
2025-11-19T00:28:01.364;599620025341039872;13569.08;-1289
2025-11-19T00:28:01.371;599620025348713856;13576.754;-1723
2025-11-19T00:28:01.379;599620025356387840;13584.428;-3050
2025-11-19T00:28:01.387;599620025364061952;13592.103;-4649
2025-11-19T00:28:01.394;599620025371735936;13599.776;-4117
2025-11-19T00:28:01.402;599620025379409920;13607.45;-2560
2025-11-19T00:28:01.410;599620025387084032;13615.124;-2001
2025-11-19T00:28:01.417;599620025394758016;13622.798;-107
2025-11-19T00:28:01.425;599620025402432000;13630.473;1658
2025-11-19T00:28:01.433;599620025410106112;13638.147;819
2025-11-19T00:28:01.440;599620025417780096;13645.821;422
2025-11-19T00:28:01.448;599620025425454080;13653.495;1691
2025-11-19T00:28:01.456;599620025433128064;13661.169;1871
2025-11-19T00:28:01.463;599620025440802176;13668.843;1029
2025-11-19T00:28:01.471;599620025448476160;13676.517;1369
2025-11-19T00:28:01.479;599620025456150144;13684.191;2061
2025-11-19T00:28:01.486;599620025463824256;13691.865;1761
2025-11-19T00:28:01.494;599620025471498240;13699.539;1241
2025-11-19T00:28:01.502;599620025479172224;13707.213;1241
2025-11-19T00:28:01.509;599620025486846336;13714.887;1384
2025-11-19T00:28:01.517;599620025494520320;13722.561;1271
2025-11-19T00:28:01.525;599620025502194304;13730.234;1159
2025-11-19T00:28:01.532;599620025509868416;13737.909;1186
2025-11-19T00:28:01.540;599620025517542400;13745.583;1166
2025-11-19T00:28:01.548;599620025525216384;13753.257;1146
2025-11-19T00:28:01.555;599620025532890368;13760.931;1134
2025-11-19T00:28:01.563;599620025540564480;13768.6045;1061
2025-11-19T00:28:01.571;599620025548238464;13776.279;926
2025-11-19T00:28:01.578;599620025555912448;13783.953;801
2025-11-19T00:28:01.586;599620025563586560;13791.627;779
2025-11-19T00:28:01.594;599620025571260544;13799.301;707
2025-11-19T00:28:01.601;599620025578934528;13806.975;629
2025-11-19T00:28:01.609;599620025586608640;13814.648;846
2025-11-19T00:28:01.617;599620025594282624;13822.322;1121
2025-11-19T00:28:01.624;599620025601956608;13829.998;1094
2025-11-19T00:28:01.632;599620025609630592;13837.672;974
2025-11-19T00:28:01.640;599620025617304704;13845.346;969
2025-11-19T00:28:01.648;599620025624978688;13853.02;956
2025-11-19T00:28:01.655;599620025632652672;13860.693;956
2025-11-19T00:28:01.663;599620025640326784;13868.368;1019
2025-11-19T00:28:01.671;599620025648000768;13876.042;1024
2025-11-19T00:28:01.678;599620025655674752;13883.716;984
2025-11-19T00:28:01.686;599620025663348864;13891.39;1016
2025-11-19T00:28:01.694;599620025671022848;13899.063;1091
2025-11-19T00:28:01.701;599620025678696832;13906.737;1081
2025-11-19T00:28:01.709;599620025686370944;13914.411;994
2025-11-19T00:28:01.717;599620025694044928;13922.086;936
2025-11-19T00:28:01.724;599620025701718912;13929.76;799
2025-11-19T00:28:01.732;599620025709392896;13937.434;227
2025-11-19T00:28:01.740;599620025717067008;13945.107;-429
2025-11-19T00:28:01.747;599620025724740992;13952.781;-217
2025-11-19T00:28:01.755;599620025732414976;13960.455;232
2025-11-19T00:28:01.763;599620025740089088;13968.13;112
2025-11-19T00:28:01.770;599620025747763072;13975.804;192
2025-11-19T00:28:01.778;599620025755437056;13983.478;544
2025-11-19T00:28:01.786;599620025763111168;13991.151;662
2025-11-19T00:28:01.793;599620025770785153;13998.825;724
2025-11-19T00:28:01.801;599620025778459648;14006.5;764
2025-11-19T00:28:01.809;599620025786134144;14014.175;679
2025-11-19T00:28:01.816;599620025793808512;14021.849;649
2025-11-19T00:28:01.824;599620025801483008;14029.524;717
2025-11-19T00:28:01.832;599620025809157376;14037.198;734
2025-11-19T00:28:01.839;599620025816831872;14044.873;722
2025-11-19T00:28:01.847;599620025824506240;14052.547;727
2025-11-19T00:28:01.855;599620025832180736;14060.222;659
2025-11-19T00:28:01.862;599620025839855232;14067.896;609
2025-11-19T00:28:01.870;599620025847529600;14075.57;629
2025-11-19T00:28:01.878;599620025855204096;14083.245;554
2025-11-19T00:28:01.885;599620025862878464;14090.919;462
2025-11-19T00:28:01.893;599620025870552960;14098.594;454
2025-11-19T00:28:01.901;599620025878227328;14106.268;449
2025-11-19T00:28:01.908;599620025885901824;14113.942;459
2025-11-19T00:28:01.916;599620025893576320;14121.617;482
2025-11-19T00:28:01.924;599620025901250688;14129.291;452
2025-11-19T00:28:01.931;599620025908925184;14136.966;387
2025-11-19T00:28:01.939;599620025916599552;14144.64;369
2025-11-19T00:28:01.947;599620025924274048;14152.314;382
2025-11-19T00:28:01.954;599620025931948416;14159.988;302
2025-11-19T00:28:01.962;599620025939622912;14167.664;204
2025-11-19T00:28:01.970;599620025947297408;14175.339;199
2025-11-19T00:28:01.978;599620025954971776;14183.013;239
2025-11-19T00:28:01.985;599620025962646272;14190.6875;339
2025-11-19T00:28:01.993;599620025970320640;14198.361;382
2025-11-19T00:28:02.001;599620025977995136;14206.036;372
2025-11-19T00:28:02.008;599620025985669504;14213.71;439
2025-11-19T00:28:02.016;599620025993344000;14221.385;459
2025-11-19T00:28:02.024;599620026001018496;14229.06;399
2025-11-19T00:28:02.031;599620026008692864;14236.733;342
2025-11-19T00:28:02.039;599620026016367360;14244.408;312
2025-11-19T00:28:02.047;599620026024041728;14252.082;327
2025-11-19T00:28:02.054;599620026031716224;14259.757;287
2025-11-19T00:28:02.062;599620026039390592;14267.431;209
2025-11-19T00:28:02.070;599620026047065088;14275.105;219
2025-11-19T00:28:02.077;599620026054739584;14282.78;252
2025-11-19T00:28:02.085;599620026062413952;14290.454;189
2025-11-19T00:28:02.093;599620026070088448;14298.13;87
2025-11-19T00:28:02.100;599620026077762816;14305.804;99
2025-11-19T00:28:02.108;599620026085437312;14313.479;174
2025-11-19T00:28:02.116;599620026093111680;14321.152;182
2025-11-19T00:28:02.123;599620026100786176;14328.827;142
2025-11-19T00:28:02.131;599620026108460544;14336.501;124
2025-11-19T00:28:02.139;599620026116135040;14344.176;139
2025-11-19T00:28:02.146;599620026123809536;14351.851;217
2025-11-19T00:28:02.154;599620026131483904;14359.524;329
2025-11-19T00:28:02.162;599620026139158400;14367.199;299
2025-11-19T00:28:02.169;599620026146832768;14374.873;219
2025-11-19T00:28:02.177;599620026154507264;14382.548;297
2025-11-19T00:28:02.185;599620026162181632;14390.222;389
2025-11-19T00:28:02.192;599620026169856128;14397.896;362
2025-11-19T00:28:02.200;599620026177530624;14405.571;239
2025-11-19T00:28:02.208;599620026185204992;14413.245;169
2025-11-19T00:28:02.215;599620026192879488;14420.92;252
2025-11-19T00:28:02.223;599620026200553856;14428.594;292
2025-11-19T00:28:02.231;599620026208228352;14436.27;202
2025-11-19T00:28:02.238;599620026215902720;14443.943;224
2025-11-19T00:28:02.246;599620026223577216;14451.618;394
2025-11-19T00:28:02.254;599620026231251712;14459.293;477
2025-11-19T00:28:02.261;599620026238926080;14466.967;492
2025-11-19T00:28:02.269;599620026246600576;14474.642;579
2025-11-19T00:28:02.277;599620026254274944;14482.315;662
2025-11-19T00:28:02.284;599620026261949440;14489.99;582
2025-11-19T00:28:02.292;599620026269623808;14497.664;242
2025-11-19T00:28:02.300;599620026277298304;14505.339;-99
2025-11-19T00:28:02.308;599620026284972800;14513.014;-97
2025-11-19T00:28:02.315;599620026292647168;14520.6875;87
2025-11-19T00:28:02.323;599620026300321664;14528.362;104
2025-11-19T00:28:02.331;599620026307996032;14536.036;-32
2025-11-19T00:28:02.338;599620026315670528;14543.711;-77
2025-11-19T00:28:02.346;599620026323344896;14551.385;7
2025-11-19T00:28:02.354;599620026331019338;14559.06;27
2025-11-19T00:28:02.361;599620026338693376;14566.733;-119
2025-11-19T00:28:02.369;599620026346367360;14574.407;-187
2025-11-19T00:28:02.377;599620026354041472;14582.081;-42
2025-11-19T00:28:02.384;599620026361715456;14589.757;54
2025-11-19T00:28:02.392;599620026369389440;14597.431;69
2025-11-19T00:28:02.400;599620026377063552;14605.1045;162
2025-11-19T00:28:02.407;599620026384737536;14612.778;239
2025-11-19T00:28:02.415;599620026392411520;14620.452;214
2025-11-19T00:28:02.423;599620026400085504;14628.126;167
2025-11-19T00:28:02.430;599620026407759616;14635.801;137
2025-11-19T00:28:02.438;599620026415433600;14643.475;179
2025-11-19T00:28:02.446;599620026423107584;14651.148;319
2025-11-19T00:28:02.453;599620026430781696;14658.822;339
2025-11-19T00:28:02.461;599620026438455680;14666.496;157
2025-11-19T00:28:02.469;599620026446129664;14674.17;134
2025-11-19T00:28:02.476;599620026453803776;14681.845;317
2025-11-19T00:28:02.484;599620026461477760;14689.519;277
2025-11-19T00:28:02.492;599620026469151744;14697.192;49
2025-11-19T00:28:02.499;599620026476825728;14704.866;22
2025-11-19T00:28:02.507;599620026484499840;14712.54;119
2025-11-19T00:28:02.515;599620026492173824;14720.214;94
2025-11-19T00:28:02.522;599620026499847808;14727.889;84
2025-11-19T00:28:02.530;599620026507521920;14735.5625;202
2025-11-19T00:28:02.538;599620026515195904;14743.236;247
2025-11-19T00:28:02.545;599620026522869888;14750.91;212
2025-11-19T00:28:02.553;599620026530544000;14758.584;192
2025-11-19T00:28:02.561;599620026538217984;14766.258;182
2025-11-19T00:28:02.568;599620026545891968;14773.932;159
2025-11-19T00:28:02.576;599620026553565952;14781.606;47
2025-11-19T00:28:02.584;599620026561240064;14789.281;-89
2025-11-19T00:28:02.591;599620026568914048;14796.955;-74
2025-11-19T00:28:02.599;599620026576588032;14804.629;0
2025-11-19T00:28:02.607;599620026584262144;14812.303;-47
2025-11-19T00:28:02.614;599620026591936128;14819.978;-139
2025-11-19T00:28:02.622;599620026599610112;14827.651;-137
2025-11-19T00:28:02.630;599620026607284224;14835.325;-32
2025-11-19T00:28:02.637;599620026614958208;14842.999;-19
2025-11-19T00:28:02.645;599620026622632192;14850.673;-127
2025-11-19T00:28:02.653;599620026630306304;14858.347;-169
2025-11-19T00:28:02.661;599620026637980288;14866.0205;-202
2025-11-19T00:28:02.668;599620026645654272;14873.695;-272
2025-11-19T00:28:02.676;599620026653328256;14881.369;-212
2025-11-19T00:28:02.684;599620026661002368;14889.043;-59
2025-11-19T00:28:02.691;599620026668676352;14896.717;-12
2025-11-19T00:28:02.699;599620026676350336;14904.391;22
2025-11-19T00:28:02.707;599620026684024448;14912.065;124
2025-11-19T00:28:02.714;599620026691698432;14919.739;129
2025-11-19T00:28:02.722;599620026699372416;14927.413;37
2025-11-19T00:28:02.730;599620026707046528;14935.087;-2
2025-11-19T00:28:02.737;599620026714720512;14942.761;-37
2025-11-19T00:28:02.745;599620026722394496;14950.435;-159
2025-11-19T00:28:02.753;599620026730068480;14958.108;-244
2025-11-19T00:28:02.760;599620026737742592;14965.783;-264
2025-11-19T00:28:02.768;599620026745416576;14973.457;-274
2025-11-19T00:28:02.776;599620026753090560;14981.131;-314
2025-11-19T00:28:02.783;599620026760764672;14988.805;-412
2025-11-19T00:28:02.791;599620026768438656;14996.479;-457
2025-11-19T00:28:02.799;599620026776112640;15004.152;-354
2025-11-19T00:28:02.806;599620026783786752;15011.828;-184
2025-11-19T00:28:02.814;599620026791460736;15019.502;-162
2025-11-19T00:28:02.822;599620026799134720;15027.176;-284
2025-11-19T00:28:02.829;599620026806808832;15034.85;-337
2025-11-19T00:28:02.837;599620026814482816;15042.523;-284
2025-11-19T00:28:02.845;599620026822156800;15050.197;-202
2025-11-19T00:28:02.852;599620026829830784;15057.871;-99
2025-11-19T00:28:02.860;599620026837504896;15065.546;-49
2025-11-19T00:28:02.868;599620026845178880;15073.22;-64
2025-11-19T00:28:02.875;599620026852852864;15080.894;-37
2025-11-19T00:28:02.883;599620026860526976;15088.567;-22
2025-11-19T00:28:02.891;599620026868200960;15096.241;-57
2025-11-19T00:28:02.898;599620026875874944;15103.916;-17
2025-11-19T00:28:02.906;599620026883549056;15111.59;34
2025-11-19T00:28:02.914;599620026891223005;15119.264;47
2025-11-19T00:28:02.921;599620026898897024;15126.9375;12
2025-11-19T00:28:02.929;599620026906571008;15134.611;-134
2025-11-19T00:28:02.937;599620026914245120;15142.285;-194
2025-11-19T00:28:02.944;599620026921919104;15149.959;-132
2025-11-19T00:28:02.952;599620026929593088;15157.634;-182
2025-11-19T00:28:02.960;599620026937267200;15165.308;-207
2025-11-19T00:28:02.967;599620026944941184;15172.981;-109
2025-11-19T00:28:02.975;599620026952615168;15180.655;-129
2025-11-19T00:28:02.983;599620026960289152;15188.329;-259
2025-11-19T00:28:02.991;599620026967963264;15196.004;-229
2025-11-19T00:28:02.998;599620026975637248;15203.678;32
2025-11-19T00:28:03.006;599620026983311232;15211.353;167
2025-11-19T00:28:03.014;599620026990985344;15219.026;37
2025-11-19T00:28:03.021;599620026998659328;15226.7;-2
2025-11-19T00:28:03.029;599620027006333312;15234.374;64
2025-11-19T00:28:03.037;599620027014007424;15242.048;24
2025-11-19T00:28:03.044;599620027021681408;15249.723;-2
2025-11-19T00:28:03.052;599620027029355392;15257.396;97
2025-11-19T00:28:03.060;599620027037029376;15265.07;169
2025-11-19T00:28:03.067;599620027044703488;15272.744;149
2025-11-19T00:28:03.075;599620027052377472;15280.418;207
2025-11-19T00:28:03.083;599620027060051456;15288.092;334
2025-11-19T00:28:03.090;599620027067725568;15295.767;239
2025-11-19T00:28:03.098;599620027075399552;15303.44;-67
2025-11-19T00:28:03.106;599620027083073536;15311.114;-169
2025-11-19T00:28:03.113;599620027090747648;15318.788;42
2025-11-19T00:28:03.121;599620027098421632;15326.462;144
2025-11-19T00:28:03.129;599620027106095616;15334.136;-7
2025-11-19T00:28:03.136;599620027113769600;15341.81;-42
2025-11-19T00:28:03.144;599620027121443712;15349.484;92
2025-11-19T00:28:03.152;599620027129117696;15357.158;139
2025-11-19T00:28:03.159;599620027136791680;15364.832;77
2025-11-19T00:28:03.167;599620027144465792;15372.506;17
2025-11-19T00:28:03.175;599620027152139776;15380.18;32
2025-11-19T00:28:03.182;599620027159813760;15387.8545;79
2025-11-19T00:28:03.190;599620027167487872;15395.528;102
2025-11-19T00:28:03.198;599620027175161856;15403.202;152
2025-11-19T00:28:03.205;599620027182835840;15410.876;172
2025-11-19T00:28:03.213;599620027190509952;15418.55;157
2025-11-19T00:28:03.221;599620027198183936;15426.225;204
2025-11-19T00:28:03.228;599620027205857920;15433.898;214
2025-11-19T00:28:03.236;599620027213531904;15441.573;72
2025-11-19T00:28:03.244;599620027221206016;15449.247;-77
2025-11-19T00:28:03.251;599620027228880000;15456.921;-102
2025-11-19T00:28:03.259;599620027236553984;15464.595;-37
2025-11-19T00:28:03.267;599620027244228096;15472.269;-12
2025-11-19T00:28:03.274;599620027251902080;15479.943;-99
2025-11-19T00:28:03.282;599620027259576064;15487.617;-124
2025-11-19T00:28:03.290;599620027267250176;15495.291;17
2025-11-19T00:28:03.297;599620027274924160;15502.965;94
2025-11-19T00:28:03.305;599620027282598144;15510.639;77
2025-11-19T00:28:03.313;599620027290272128;15518.3125;117
2025-11-19T00:28:03.320;599620027297946240;15525.986;79
2025-11-19T00:28:03.328;599620027305620224;15533.661;-44
2025-11-19T00:28:03.336;599620027313294208;15541.335;-47
2025-11-19T00:28:03.344;599620027320968320;15549.009;-9
2025-11-19T00:28:03.351;599620027328642304;15556.683;-112
2025-11-19T00:28:03.359;599620027336316288;15564.356;-222
2025-11-19T00:28:03.367;599620027343990400;15572.031;-239
2025-11-19T00:28:03.374;599620027351664384;15579.705;-234
2025-11-19T00:28:03.382;599620027359338368;15587.379;-212
2025-11-19T00:28:03.390;599620027367012480;15595.053;-112
2025-11-19T00:28:03.397;599620027374686464;15602.727;-4
2025-11-19T00:28:03.405;599620027382360448;15610.4;7
2025-11-19T00:28:03.413;599620027390034432;15618.074;-7
2025-11-19T00:28:03.420;599620027397708544;15625.749;-37
2025-11-19T00:28:03.428;599620027405382528;15633.424;-42
2025-11-19T00:28:03.436;599620027413056512;15641.098;52
2025-11-19T00:28:03.443;599620027420730624;15648.771;109
2025-11-19T00:28:03.451;599620027428404608;15656.445;-29
2025-11-19T00:28:03.459;599620027436078592;15664.119;-167
2025-11-19T00:28:03.466;599620027443752704;15671.794;-87
2025-11-19T00:28:03.474;599620027451426672;15679.468;44
2025-11-19T00:28:03.482;599620027459100800;15687.142;94
2025-11-19T00:28:03.489;599620027466774912;15694.815;67
2025-11-19T00:28:03.497;599620027474449024;15702.489;-4
2025-11-19T00:28:03.505;599620027482123136;15710.164;-29
2025-11-19T00:28:03.512;599620027489797120;15717.838;2
2025-11-19T00:28:03.520;599620027497471232;15725.512;37
2025-11-19T00:28:03.528;599620027505145344;15733.186;24
2025-11-19T00:28:03.535;599620027512819456;15740.86;-57
2025-11-19T00:28:03.543;599620027520493568;15748.534;-99
2025-11-19T00:28:03.551;599620027528167680;15756.208;-62
2025-11-19T00:28:03.558;599620027535841664;15763.882;-69
2025-11-19T00:28:03.566;599620027543515776;15771.556;-122
2025-11-19T00:28:03.574;599620027551189888;15779.23;-147
2025-11-19T00:28:03.581;599620027558864000;15786.904;-162
2025-11-19T00:28:03.589;599620027566538112;15794.578;-182
2025-11-19T00:28:03.597;599620027574212224;15802.253;-159
2025-11-19T00:28:03.604;599620027581886336;15809.927;-112
2025-11-19T00:28:03.612;599620027589560320;15817.601;-137
2025-11-19T00:28:03.620;599620027597234432;15825.274;-197
2025-11-19T00:28:03.627;599620027604908544;15832.949;-169
2025-11-19T00:28:03.635;599620027612582656;15840.624;-94
2025-11-19T00:28:03.643;599620027620256768;15848.298;-102
2025-11-19T00:28:03.650;599620027627930880;15855.972;-139
2025-11-19T00:28:03.658;599620027635604864;15863.6455;-127
2025-11-19T00:28:03.666;599620027643278976;15871.32;-154
2025-11-19T00:28:03.673;599620027650953088;15878.994;-239
2025-11-19T00:28:03.681;599620027658627200;15886.668;-239
2025-11-19T00:28:03.689;599620027666301312;15894.342;-174
2025-11-19T00:28:03.697;599620027673975424;15902.016;-197
2025-11-19T00:28:03.704;599620027681649536;15909.69;-197
2025-11-19T00:28:03.712;599620027689323520;15917.364;-57
2025-11-19T00:28:03.720;599620027696997632;15925.038;-9
2025-11-19T00:28:03.727;599620027704671744;15932.712;-87
2025-11-19T00:28:03.735;599620027712345856;15940.387;-79
2025-11-19T00:28:03.743;599620027720019968;15948.061;-29
2025-11-19T00:28:03.750;599620027727694080;15955.734;-119
2025-11-19T00:28:03.758;599620027735368192;15963.408;-254
2025-11-19T00:28:03.766;599620027743042176;15971.082;-247
2025-11-19T00:28:03.773;599620027750716288;15978.757;-172
2025-11-19T00:28:03.781;599620027758390400;15986.431;-127
2025-11-19T00:28:03.789;599620027766064512;15994.1045;-92
2025-11-19T00:28:03.796;599620027773738624;16001.779;-62
2025-11-19T00:28:03.804;599620027781412736;16009.453;-19
2025-11-19T00:28:03.812;599620027789086720;16017.127;-7
2025-11-19T00:28:03.819;599620027796760832;16024.802;-67
2025-11-19T00:28:03.827;599620027804434944;16032.476;-137
2025-11-19T00:28:03.835;599620027812109056;16040.15;-139
2025-11-19T00:28:03.842;599620027819783168;16047.824;-212
2025-11-19T00:28:03.850;599620027827457280;16055.498;-362
2025-11-19T00:28:03.858;599620027835131392;16063.172;-319
2025-11-19T00:28:03.865;599620027842805376;16070.847;-109
2025-11-19T00:28:03.873;599620027850479488;16078.5205;-44
2025-11-19T00:28:03.881;599620027858153600;16086.194;-189
2025-11-19T00:28:03.888;599620027865827712;16093.868;-294
2025-11-19T00:28:03.896;599620027873501824;16101.542;-324
2025-11-19T00:28:03.904;599620027881175936;16109.217;-379
2025-11-19T00:28:03.911;599620027888849920;16116.891;-289
2025-11-19T00:28:03.919;599620027896524032;16124.564;-114
2025-11-19T00:28:03.927;599620027904198144;16132.238;-42
2025-11-19T00:28:03.934;599620027911872256;16139.913;-4
2025-11-19T00:28:03.942;599620027919546368;16147.587;47
2025-11-19T00:28:03.950;599620027927220480;16155.261;37
2025-11-19T00:28:03.957;599620027934894592;16162.935;-122
