Phone timestamp;sensor timestamp [ns];timestamp [ms];ecg [uV]
2025-11-18T23:22:00.184;599616063966231168;0.0;20464
2025-11-18T23:22:00.191;599616063973923456;7.692288;20464
2025-11-18T23:22:00.199;599616063981615744;15.384576;20464
2025-11-18T23:22:00.207;599616063989308032;23.076864;20464
2025-11-18T23:22:00.214;599616063997000448;30.76928;20464
2025-11-18T23:22:00.222;599616064004692736;38.461567;20464
2025-11-18T23:22:00.230;599616064012385024;46.153854;20464
2025-11-18T23:22:00.237;599616064020077312;53.846146;20464
2025-11-18T23:22:00.245;599616064027769600;61.538433;20464
2025-11-18T23:22:00.253;599616064035461888;69.23072;20464
2025-11-18T23:22:00.260;599616064043154304;76.923134;20464
2025-11-18T23:22:00.268;599616064050846592;84.615425;20464
2025-11-18T23:22:00.276;599616064058538880;92.30771;20371
2025-11-18T23:22:00.284;599616064066231168;100.0;20206
2025-11-18T23:22:00.291;599616064073923456;107.69229;20116
2025-11-18T23:22:00.299;599616064081615744;115.384575;20004
2025-11-18T23:22:00.307;599616064089308032;123.076866;19852
2025-11-18T23:22:00.314;599616064097000448;130.76929;19699
2025-11-18T23:22:00.322;599616064104692736;138.46156;19557
2025-11-18T23:22:00.330;599616064112385024;146.15385;19379
2025-11-18T23:22:00.337;599616064120077312;153.84615;19185
2025-11-18T23:22:00.345;599616064127769600;161.53844;19067
2025-11-18T23:22:00.353;599616064135461888;169.23071;18967
2025-11-18T23:22:00.360;599616064143154304;176.92314;18807
2025-11-18T23:22:00.368;599616064150846592;184.61542;18675
2025-11-18T23:22:00.376;599616064158538880;192.30771;18590
2025-11-18T23:22:00.384;599616064166231168;200.0;18495
2025-11-18T23:22:00.391;599616064173923456;207.69229;18415
2025-11-18T23:22:00.399;599616064181615744;215.38458;18343
2025-11-18T23:22:00.407;599616064189308032;223.07686;18190
2025-11-18T23:22:00.414;599616064197000448;230.76929;18023
2025-11-18T23:22:00.422;599616064204692736;238.46156;17948
2025-11-18T23:22:00.430;599616064212385024;246.15385;17758
2025-11-18T23:22:00.437;599616064220077312;253.84615;17411
2025-11-18T23:22:00.445;599616064227769600;261.53842;17216
2025-11-18T23:22:00.453;599616064235461888;269.2307;17203
2025-11-18T23:22:00.460;599616064243154304;276.92313;17176
2025-11-18T23:22:00.468;599616064250846592;284.61542;17013
2025-11-18T23:22:00.476;599616064258538880;292.3077;16731
2025-11-18T23:22:00.484;599616064266231168;300.0;16529
2025-11-18T23:22:00.491;599616064273923456;307.6923;16426
2025-11-18T23:22:00.499;599616064281615744;315.38458;16264
2025-11-18T23:22:00.507;599616064289308032;323.07687;16171
2025-11-18T23:22:00.514;599616064297000448;330.7693;16204
2025-11-18T23:22:00.522;599616064304692736;338.46158;16069
2025-11-18T23:22:00.530;599616064312385024;346.15387;15804
2025-11-18T23:22:00.537;599616064320077312;353.84613;15682
2025-11-18T23:22:00.545;599616064327769600;361.53842;15669
2025-11-18T23:22:00.553;599616064335461888;369.2307;15589
2025-11-18T23:22:00.560;599616064343154304;376.92313;15437
2025-11-18T23:22:00.568;599616064350846592;384.61542;15320
2025-11-18T23:22:00.576;599616064358538880;392.3077;15205
2025-11-18T23:22:00.584;599616064366231168;400.0;15055
2025-11-18T23:22:00.591;599616064373923456;407.6923;14955
2025-11-18T23:22:00.599;599616064381615744;415.38458;14877
2025-11-18T23:22:00.607;599616064389308032;423.07687;14795
2025-11-18T23:22:00.614;599616064397000448;430.7693;14707
2025-11-18T23:22:00.622;599616064404692736;438.46158;14535
2025-11-18T23:22:00.630;599616064412385024;446.15387;14428
2025-11-18T23:22:00.637;599616064420077312;453.84613;14445
2025-11-18T23:22:00.645;599616064427769600;461.53842;14340
2025-11-18T23:22:00.653;599616064435461888;469.2307;14125
2025-11-18T23:22:00.660;599616064443154304;476.92313;13880
2025-11-18T23:22:00.668;599616064450846592;484.61542;13656
2025-11-18T23:22:00.676;599616064458538880;492.3077;13691
2025-11-18T23:22:00.684;599616064466231168;500.0;13781
2025-11-18T23:22:00.691;599616064473923456;507.6923;13638
2025-11-18T23:22:00.699;599616064481615744;515.3846;13521
2025-11-18T23:22:00.707;599616064489308032;523.07684;13446
2025-11-18T23:22:00.714;599616064497000448;530.7693;13273
2025-11-18T23:22:00.722;599616064504692736;538.46155;13116
2025-11-18T23:22:00.730;599616064512385024;546.1539;13056
2025-11-18T23:22:00.737;599616064520077297;553.8461;13016
2025-11-18T23:22:00.745;599616064527756032;561.52484;12749
2025-11-18T23:22:00.753;599616064535434752;569.2036;12444
2025-11-18T23:22:00.760;599616064543113472;576.8823;12529
2025-11-18T23:22:00.768;599616064550792064;584.5609;12686
2025-11-18T23:22:00.776;599616064558470784;592.2396;12479
2025-11-18T23:22:00.783;599616064566149504;599.91833;12212
2025-11-18T23:22:00.791;599616064573828224;607.59705;12214
2025-11-18T23:22:00.799;599616064581506816;615.27563;12184
2025-11-18T23:22:00.806;599616064589185536;622.95435;11942
2025-11-18T23:22:00.814;599616064596864256;630.6331;11774
2025-11-18T23:22:00.822;599616064604542976;638.3118;11634
2025-11-18T23:22:00.829;599616064612221696;645.99054;11495
2025-11-18T23:22:00.837;599616064619900288;653.6691;11564
2025-11-18T23:22:00.845;599616064627579008;661.34784;11517
2025-11-18T23:22:00.853;599616064635257728;669.02655;11307
2025-11-18T23:22:00.860;599616064642936448;676.70526;11212
2025-11-18T23:22:00.868;599616064650615040;684.38385;11072
2025-11-18T23:22:00.876;599616064658293760;692.0626;10892
2025-11-18T23:22:00.883;599616064665972480;699.74133;10877
2025-11-18T23:22:00.891;599616064673651200;707.42004;10945
2025-11-18T23:22:00.899;599616064681329792;715.09863;10937
2025-11-18T23:22:00.906;599616064689008512;722.77734;10912
2025-11-18T23:22:00.914;599616064696687232;730.45605;10890
2025-11-18T23:22:00.922;599616064704365952;738.13477;10777
2025-11-18T23:22:00.929;599616064712044672;745.8135;10625
2025-11-18T23:22:00.937;599616064719723264;753.4921;10383
2025-11-18T23:22:00.945;599616064727401984;761.17084;10110
2025-11-18T23:22:00.952;599616064735080704;768.84955;9998
2025-11-18T23:22:00.960;599616064742759424;776.52826;9948
2025-11-18T23:22:00.968;599616064750438016;784.20685;9953
2025-11-18T23:22:00.975;599616064758116736;791.88556;9921
2025-11-18T23:22:00.983;599616064765795456;799.5643;9703
2025-11-18T23:22:00.991;599616064773474176;807.243;9408
2025-11-18T23:22:00.998;599616064781152896;814.92175;9089
2025-11-18T23:22:01.006;599616064788831488;822.60034;8926
2025-11-18T23:22:01.014;599616064796510208;830.27905;9066
2025-11-18T23:22:01.021;599616064804188928;837.95776;9378
2025-11-18T23:22:01.029;599616064811867648;845.6365;9568
2025-11-18T23:22:01.037;599616064819546240;853.31506;9418
2025-11-18T23:22:01.044;599616064827224960;860.9938;9126
2025-11-18T23:22:01.052;599616064834903680;868.6725;9039
2025-11-18T23:22:01.060;599616064842582400;876.35126;9126
2025-11-18T23:22:01.068;599616064850261120;884.02997;9064
2025-11-18T23:22:01.075;599616064857939712;891.70856;8964
2025-11-18T23:22:01.083;599616064865618432;899.38727;8974
2025-11-18T23:22:01.091;599616064873297152;907.066;8771
2025-11-18T23:22:01.098;599616064880975872;914.7447;8434
2025-11-18T23:22:01.106;599616064888654464;922.4233;8466
2025-11-18T23:22:01.114;599616064896333184;930.102;8624
2025-11-18T23:22:01.121;599616064904011904;937.78076;8404
2025-11-18T23:22:01.129;599616064911690624;945.4595;8254
2025-11-18T23:22:01.137;599616064919369216;953.13806;8407
2025-11-18T23:22:01.144;599616064927047936;960.8168;8294
2025-11-18T23:22:01.152;599616064934726656;968.4955;7944
2025-11-18T23:22:01.160;599616064942405376;976.1742;7862
2025-11-18T23:22:01.167;599616064950084096;983.8529;7952
2025-11-18T23:22:01.175;599616064957762688;991.5315;7220
2025-11-18T23:22:01.183;599616064965441408;999.21027;4741
2025-11-18T23:22:01.190;599616064973120128;1006.889;4182
2025-11-18T23:22:01.198;599616064980798848;1014.5677;7302
2025-11-18T23:22:01.206;599616064988477440;1022.2463;8089
2025-11-18T23:22:01.213;599616064996156160;1029.925;6718
2025-11-18T23:22:01.221;599616065003834880;1037.6038;7267
2025-11-18T23:22:01.229;599616065011513600;1045.2825;7650
2025-11-18T23:22:01.236;599616065019192320;1052.9612;6895
2025-11-18T23:22:01.244;599616065026870912;1060.6398;6763
2025-11-18T23:22:01.252;599616065034549632;1068.3185;7067
2025-11-18T23:22:01.259;599616065042228352;1075.9972;7032
2025-11-18T23:22:01.267;599616065049907072;1083.6759;7015
2025-11-18T23:22:01.275;599616065057585664;1091.3545;7052
2025-11-18T23:22:01.283;599616065065264384;1099.0332;6883
2025-11-18T23:22:01.290;599616065072943104;1106.7119;6808
2025-11-18T23:22:01.298;599616065080621748;1114.3905;6910
2025-11-18T23:22:01.306;599616065088300416;1122.0692;6838
2025-11-18T23:22:01.313;599616065095979136;1129.7479;6708
2025-11-18T23:22:01.321;599616065103657856;1137.4266;6765
2025-11-18T23:22:01.329;599616065111336448;1145.1052;6725
2025-11-18T23:22:01.336;599616065119015168;1152.784;6468
2025-11-18T23:22:01.344;599616065126693888;1160.4628;6225
2025-11-18T23:22:01.352;599616065134372608;1168.1415;6073
2025-11-18T23:22:01.359;599616065142051200;1175.8201;6031
2025-11-18T23:22:01.367;599616065149729920;1183.4988;6033
2025-11-18T23:22:01.375;599616065157408640;1191.1775;6018
2025-11-18T23:22:01.382;599616065165087360;1198.8562;6001
2025-11-18T23:22:01.390;599616065172766080;1206.5349;5946
2025-11-18T23:22:01.398;599616065180444672;1214.2135;5843
2025-11-18T23:22:01.405;599616065188123392;1221.8922;5701
2025-11-18T23:22:01.413;599616065195802112;1229.5709;5586
2025-11-18T23:22:01.421;599616065203480832;1237.2496;5576
2025-11-18T23:22:01.428;599616065211159424;1244.9282;5591
2025-11-18T23:22:01.436;599616065218838144;1252.6069;5536
2025-11-18T23:22:01.444;599616065226516864;1260.2856;5451
2025-11-18T23:22:01.451;599616065234195584;1267.9644;5354
2025-11-18T23:22:01.459;599616065241874176;1275.6431;5231
2025-11-18T23:22:01.467;599616065249552896;1283.3218;5256
2025-11-18T23:22:01.475;599616065257231616;1291.0005;5346
2025-11-18T23:22:01.482;599616065264910336;1298.6792;5221
2025-11-18T23:22:01.490;599616065272589056;1306.3579;5066
2025-11-18T23:22:01.498;599616065280267648;1314.0365;5084
2025-11-18T23:22:01.505;599616065287946368;1321.7152;5166
2025-11-18T23:22:01.513;599616065295625088;1329.3939;5216
2025-11-18T23:22:01.521;599616065303303808;1337.0726;5141
2025-11-18T23:22:01.528;599616065310982400;1344.7512;4886
2025-11-18T23:22:01.536;599616065318661120;1352.4299;4554
2025-11-18T23:22:01.544;599616065326339840;1360.1086;4407
2025-11-18T23:22:01.551;599616065334018560;1367.7874;4572
2025-11-18T23:22:01.559;599616065341697280;1375.4661;4736
2025-11-18T23:22:01.567;599616065349375872;1383.1447;4706
2025-11-18T23:22:01.574;599616065357054592;1390.8234;4656
2025-11-18T23:22:01.582;599616065364733312;1398.5022;4611
2025-11-18T23:22:01.590;599616065372412032;1406.1809;4587
2025-11-18T23:22:01.597;599616065380090624;1413.8595;4611
2025-11-18T23:22:01.605;599616065387769344;1421.5382;4619
2025-11-18T23:22:01.613;599616065395448064;1429.2169;4686
2025-11-18T23:22:01.620;599616065403126784;1436.8956;4749
2025-11-18T23:22:01.628;599616065410805504;1444.5743;4621
2025-11-18T23:22:01.636;599616065418484096;1452.2529;4377
2025-11-18T23:22:01.643;599616065426162816;1459.9316;4214
2025-11-18T23:22:01.651;599616065433841536;1467.6104;4174
2025-11-18T23:22:01.659;599616065441520256;1475.2891;4142
2025-11-18T23:22:01.666;599616065449198848;1482.9677;4094
2025-11-18T23:22:01.674;599616065456877568;1490.6464;4032
2025-11-18T23:22:01.682;599616065464556288;1498.3251;4009
2025-11-18T23:22:01.690;599616065472235008;1506.0038;4132
2025-11-18T23:22:01.697;599616065479913600;1513.6824;4187
2025-11-18T23:22:01.705;599616065487592320;1521.3612;4067
2025-11-18T23:22:01.713;599616065495271040;1529.0399;4019
2025-11-18T23:22:01.720;599616065502949760;1536.7186;4052
2025-11-18T23:22:01.728;599616065510628480;1544.3973;3977
2025-11-18T23:22:01.736;599616065518307072;1552.0759;3862
2025-11-18T23:22:01.743;599616065525985792;1559.7546;3830
2025-11-18T23:22:01.751;599616065533664512;1567.4333;3797
2025-11-18T23:22:01.759;599616065541343232;1575.112;3740
2025-11-18T23:22:01.766;599616065549021824;1582.7906;3765
2025-11-18T23:22:01.774;599616065556700544;1590.4694;3760
2025-11-18T23:22:01.782;599616065564379264;1598.1481;3662
2025-11-18T23:22:01.789;599616065572057984;1605.8268;3662
2025-11-18T23:22:01.797;599616065579736704;1613.5055;3702
2025-11-18T23:22:01.805;599616065587415296;1621.1841;3632
2025-11-18T23:22:01.812;599616065595094016;1628.8628;3625
2025-11-18T23:22:01.820;599616065602772736;1636.5416;3687
2025-11-18T23:22:01.828;599616065610451456;1644.2203;3625
2025-11-18T23:22:01.835;599616065618130048;1651.8989;3555
2025-11-18T23:22:01.843;599616065625808768;1659.5776;3532
2025-11-18T23:22:01.851;599616065633487488;1667.2563;3475
2025-11-18T23:22:01.858;599616065641166199;1674.935;3455
2025-11-18T23:22:01.866;599616065648844928;1682.6138;3420
2025-11-18T23:22:01.874;599616065656523648;1690.2925;3332
2025-11-18T23:22:01.881;599616065664202368;1697.9712;3222
2025-11-18T23:22:01.889;599616065671880960;1705.6498;3107
2025-11-18T23:22:01.897;599616065679559680;1713.3285;3082
2025-11-18T23:22:01.905;599616065687238400;1721.0072;3117
2025-11-18T23:22:01.912;599616065694917120;1728.6859;3117
2025-11-18T23:22:01.920;599616065702595712;1736.3645;3097
2025-11-18T23:22:01.928;599616065710274432;1744.0432;3010
2025-11-18T23:22:01.935;599616065717953152;1751.7219;2855
2025-11-18T23:22:01.943;599616065725631872;1759.4008;2845
2025-11-18T23:22:01.951;599616065733310592;1767.0795;2883
2025-11-18T23:22:01.958;599616065740989184;1774.758;2650
2025-11-18T23:22:01.966;599616065748667904;1782.4368;2435
2025-11-18T23:22:01.974;599616065756346624;1790.1155;2485
2025-11-18T23:22:01.981;599616065764025344;1797.7942;2493
2025-11-18T23:22:01.989;599616065771703936;1805.4728;2485
2025-11-18T23:22:01.997;599616065779382656;1813.1515;2668
2025-11-18T23:22:02.004;599616065787061376;1820.8302;2793
2025-11-18T23:22:02.012;599616065794740096;1828.5089;2710
2025-11-18T23:22:02.020;599616065802418688;1836.1875;2658
2025-11-18T23:22:02.027;599616065810097408;1843.8662;2600
2025-11-18T23:22:02.035;599616065817776128;1851.5449;2470
2025-11-18T23:22:02.043;599616065825454848;1859.2236;2480
2025-11-18T23:22:02.050;599616065833133568;1866.9023;2498
2025-11-18T23:22:02.058;599616065840812160;1874.5809;2353
2025-11-18T23:22:02.066;599616065848490880;1882.2598;2243
2025-11-18T23:22:02.073;599616065856169600;1889.9385;2218
2025-11-18T23:22:02.081;599616065863848320;1897.6172;2131
2025-11-18T23:22:02.089;599616065871526912;1905.2958;1948
2025-11-18T23:22:02.096;599616065879205632;1912.9745;1761
2025-11-18T23:22:02.104;599616065886884352;1920.6532;1711
2025-11-18T23:22:02.112;599616065894563072;1928.3319;1793
2025-11-18T23:22:02.120;599616065902241792;1936.0106;1671
2025-11-18T23:22:02.127;599616065909920384;1943.6892;1419
2025-11-18T23:22:02.135;599616065917599104;1951.3679;1504
2025-11-18T23:22:02.143;599616065925277824;1959.0466;1711
2025-11-18T23:22:02.150;599616065932956544;1966.7253;1696
2025-11-18T23:22:02.158;599616065940635136;1974.4039;1576
2025-11-18T23:22:02.166;599616065948313856;1982.0826;1553
2025-11-18T23:22:02.173;599616065955992576;1989.7614;1821
2025-11-18T23:22:02.181;599616065963671296;1997.4402;2096
2025-11-18T23:22:02.189;599616065971350016;2005.1189;1943
2025-11-18T23:22:02.196;599616065979028608;2012.7975;1726
2025-11-18T23:22:02.204;599616065986707328;2020.4762;1791
2025-11-18T23:22:02.212;599616065994386048;2028.1549;1838
2025-11-18T23:22:02.219;599616066002064768;2035.8336;1811
2025-11-18T23:22:02.227;599616066009743360;2043.5122;1881
2025-11-18T23:22:02.235;599616066017422080;2051.191;1881
2025-11-18T23:22:02.242;599616066025100800;2058.8696;1796
2025-11-18T23:22:02.250;599616066032779520;2066.5483;1768
2025-11-18T23:22:02.258;599616066040458112;2074.227;1681
2025-11-18T23:22:02.265;599616066048136832;2081.9058;1643
2025-11-18T23:22:02.273;599616066055815552;2089.5845;1718
2025-11-18T23:22:02.281;599616066063494272;2097.2632;1678
2025-11-18T23:22:02.288;599616066071172992;2104.942;1771
2025-11-18T23:22:02.296;599616066078851584;2112.6204;2188
2025-11-18T23:22:02.304;599616066086530304;2120.299;2350
2025-11-18T23:22:02.311;599616066094209024;2127.9778;2036
2025-11-18T23:22:02.319;599616066101887744;2135.6565;1721
2025-11-18T23:22:02.327;599616066109566336;2143.3352;1389
2025-11-18T23:22:02.335;599616066117245056;2151.014;1014
2025-11-18T23:22:02.342;599616066124923776;2158.6926;1011
2025-11-18T23:22:02.350;599616066132602496;2166.3713;1139
2025-11-18T23:22:02.358;599616066140281216;2174.05;979
2025-11-18T23:22:02.365;599616066147959808;2181.7288;926
2025-11-18T23:22:02.373;599616066155638528;2189.4072;1234
2025-11-18T23:22:02.381;599616066163317248;2197.0862;1441
2025-11-18T23:22:02.388;599616066170995968;2204.7646;1344
2025-11-18T23:22:02.396;599616066178674560;2212.4434;1271
2025-11-18T23:22:02.404;599616066186353280;2220.122;1324
2025-11-18T23:22:02.411;599616066194032000;2227.8008;1181
2025-11-18T23:22:02.419;599616066201710650;2235.4795;729
2025-11-18T23:22:02.427;599616066209389312;2243.158;592
2025-11-18T23:22:02.434;599616066217068032;2250.837;996
2025-11-18T23:22:02.442;599616066224746752;2258.5154;1079
2025-11-18T23:22:02.450;599616066232425344;2266.194;757
2025-11-18T23:22:02.457;599616066240104064;2273.8728;749
2025-11-18T23:22:02.465;599616066247782784;2281.5515;826
2025-11-18T23:22:02.473;599616066255461504;2289.2302;629
2025-11-18T23:22:02.480;599616066263140096;2296.9087;439
2025-11-18T23:22:02.488;599616066270818816;2304.588;419
2025-11-18T23:22:02.496;599616066278497536;2312.2664;492
2025-11-18T23:22:02.503;599616066286176256;2319.9453;527
2025-11-18T23:22:02.511;599616066293854976;2327.6238;512
2025-11-18T23:22:02.519;599616066301533568;2335.3025;499
2025-11-18T23:22:02.526;599616066309212288;2342.9812;472
2025-11-18T23:22:02.534;599616066316891008;2350.66;492
2025-11-18T23:22:02.542;599616066324569728;2358.3386;702
2025-11-18T23:22:02.550;599616066332248320;2366.017;1079
2025-11-18T23:22:02.557;599616066339927040;2373.696;1124
2025-11-18T23:22:02.565;599616066347605760;2381.3745;809
2025-11-18T23:22:02.573;599616066355284480;2389.0535;791
2025-11-18T23:22:02.580;599616066362963072;2396.732;1049
2025-11-18T23:22:02.588;599616066370641792;2404.4106;1159
2025-11-18T23:22:02.596;599616066378320512;2412.0894;1076
2025-11-18T23:22:02.603;599616066385999232;2419.768;839
2025-11-18T23:22:02.611;599616066393677952;2427.4468;589
2025-11-18T23:22:02.619;599616066401356544;2435.1252;549
2025-11-18T23:22:02.626;599616066409035264;2442.8042;462
2025-11-18T23:22:02.634;599616066416713984;2450.4827;307
2025-11-18T23:22:02.642;599616066424392704;2458.1616;414
2025-11-18T23:22:02.649;599616066432071296;2465.84;447
2025-11-18T23:22:02.657;599616066439750016;2473.5188;379
2025-11-18T23:22:02.665;599616066447428736;2481.1975;592
2025-11-18T23:22:02.672;599616066455107456;2488.8762;689
2025-11-18T23:22:02.680;599616066462786176;2496.555;592
2025-11-18T23:22:02.688;599616066470464768;2504.2334;702
2025-11-18T23:22:02.695;599616066478143488;2511.9124;659
2025-11-18T23:22:02.703;599616066485822208;2519.5908;442
2025-11-18T23:22:02.711;599616066493500928;2527.2698;532
2025-11-18T23:22:02.718;599616066501179520;2534.9482;744
2025-11-18T23:22:02.726;599616066508858240;2542.627;1046
2025-11-18T23:22:02.734;599616066516536960;2550.306;1296
2025-11-18T23:22:02.741;599616066524215680;2557.9846;1276
2025-11-18T23:22:02.749;599616066531894400;2565.6633;1339
2025-11-18T23:22:02.757;599616066539572992;2573.3418;1381
2025-11-18T23:22:02.765;599616066547251712;2581.0208;1226
2025-11-18T23:22:02.772;599616066554930432;2588.6992;1156
2025-11-18T23:22:02.780;599616066562609152;2596.3782;1169
2025-11-18T23:22:02.788;599616066570287744;2604.0566;1189
2025-11-18T23:22:02.795;599616066577966464;2611.7354;1311
2025-11-18T23:22:02.803;599616066585645184;2619.414;1391
2025-11-18T23:22:02.811;599616066593323904;2627.0928;1336
2025-11-18T23:22:02.818;599616066601002496;2634.7715;1321
2025-11-18T23:22:02.826;599616066608681216;2642.45;1321
2025-11-18T23:22:02.834;599616066616359936;2650.129;1226
2025-11-18T23:22:02.841;599616066624038656;2657.8074;1079
2025-11-18T23:22:02.849;599616066631717376;2665.4863;829
2025-11-18T23:22:02.857;599616066639395968;2673.1648;269
2025-11-18T23:22:02.864;599616066647074688;2680.8435;-232
2025-11-18T23:22:02.872;599616066654753408;2688.5222;-57
2025-11-18T23:22:02.880;599616066662432128;2696.201;199
2025-11-18T23:22:02.887;599616066670110720;2703.8796;122
2025-11-18T23:22:02.895;599616066677789440;2711.558;192
2025-11-18T23:22:02.903;599616066685468160;2719.237;407
2025-11-18T23:22:02.910;599616066693146880;2726.9155;727
2025-11-18T23:22:02.918;599616066700825600;2734.5945;1031
2025-11-18T23:22:02.926;599616066708504192;2742.273;1044
2025-11-18T23:22:02.933;599616066716182912;2749.9517;1121
2025-11-18T23:22:02.941;599616066723861632;2757.6304;1314
2025-11-18T23:22:02.949;599616066731540352;2765.309;1119
2025-11-18T23:22:02.956;599616066739218944;2772.9878;799
2025-11-18T23:22:02.964;599616066746897664;2780.6663;826
2025-11-18T23:22:02.972;599616066754576384;2788.3455;752
2025-11-18T23:22:02.980;599616066762255101;2796.024;402
2025-11-18T23:22:02.987;599616066769933824;2803.703;442
2025-11-18T23:22:02.995;599616066777612544;2811.3813;767
2025-11-18T23:22:03.003;599616066785291264;2819.0603;864
2025-11-18T23:22:03.010;599616066792969856;2826.7388;834
2025-11-18T23:22:03.018;599616066800648576;2834.4175;722
2025-11-18T23:22:03.026;599616066808327296;2842.0962;579
2025-11-18T23:22:03.033;599616066816006016;2849.775;542
2025-11-18T23:22:03.041;599616066823684608;2857.4536;497
2025-11-18T23:22:03.049;599616066831363328;2865.132;452
2025-11-18T23:22:03.056;599616066839042048;2872.811;429
2025-11-18T23:22:03.064;599616066846720768;2880.4895;457
2025-11-18T23:22:03.072;599616066854399488;2888.1685;629
2025-11-18T23:22:03.079;599616066862078080;2895.847;734
2025-11-18T23:22:03.087;599616066869756800;2903.5256;667
2025-11-18T23:22:03.095;599616066877435520;2911.2043;592
2025-11-18T23:22:03.102;599616066885114240;2918.883;537
2025-11-18T23:22:03.110;599616066892792832;2926.5618;452
2025-11-18T23:22:03.118;599616066900471552;2934.2402;384
2025-11-18T23:22:03.125;599616066908150272;2941.9192;402
2025-11-18T23:22:03.133;599616066915828992;2949.5977;364
2025-11-18T23:22:03.141;599616066923507584;2957.2764;117
2025-11-18T23:22:03.148;599616066931186304;2964.955;-84
2025-11-18T23:22:03.156;599616066938865024;2972.6338;52
2025-11-18T23:22:03.164;599616066946543744;2980.3125;217
2025-11-18T23:22:03.171;599616066954222464;2987.9912;122
2025-11-18T23:22:03.179;599616066961901056;2995.67;97
2025-11-18T23:22:03.187;599616066969579776;3003.3484;194
2025-11-18T23:22:03.195;599616066977258496;3011.0273;182
2025-11-18T23:22:03.202;599616066984937216;3018.7058;227
2025-11-18T23:22:03.210;599616066992615808;3026.3845;317
2025-11-18T23:22:03.218;599616067000294528;3034.0635;217
2025-11-18T23:22:03.225;599616067007973248;3041.7422;119
2025-11-18T23:22:03.233;599616067015651968;3049.421;287
2025-11-18T23:22:03.241;599616067023330688;3057.0996;587
2025-11-18T23:22:03.248;599616067031009280;3064.7783;727
2025-11-18T23:22:03.256;599616067038688000;3072.4568;679
2025-11-18T23:22:03.264;599616067046366720;3080.1357;622
2025-11-18T23:22:03.271;599616067054045440;3087.8142;579
2025-11-18T23:22:03.279;599616067061724032;3095.493;489
2025-11-18T23:22:03.287;599616067069402752;3103.1716;369
2025-11-18T23:22:03.294;599616067077081472;3110.8503;257
2025-11-18T23:22:03.302;599616067084760192;3118.529;242
2025-11-18T23:22:03.310;599616067092438912;3126.2078;474
2025-11-18T23:22:03.317;599616067100117504;3133.8865;737
2025-11-18T23:22:03.325;599616067107796224;3141.565;654
2025-11-18T23:22:03.333;599616067115474944;3149.244;434
2025-11-18T23:22:03.340;599616067123153664;3156.9224;449
2025-11-18T23:22:03.348;599616067130832256;3164.601;507
2025-11-18T23:22:03.356;599616067138510976;3172.2798;367
2025-11-18T23:22:03.363;599616067146189696;3179.9585;234
2025-11-18T23:22:03.371;599616067153868416;3187.6372;269
2025-11-18T23:22:03.379;599616067161547008;3195.3157;302
2025-11-18T23:22:03.386;599616067169225728;3202.9946;269
2025-11-18T23:22:03.394;599616067176904448;3210.673;312
2025-11-18T23:22:03.402;599616067184583168;3218.352;364
2025-11-18T23:22:03.410;599616067192261888;3226.0305;329
2025-11-18T23:22:03.417;599616067199940480;3233.7092;344
2025-11-18T23:22:03.425;599616067207619200;3241.388;487
2025-11-18T23:22:03.433;599616067215297920;3249.0667;607
2025-11-18T23:22:03.440;599616067222976640;3256.7454;532
2025-11-18T23:22:03.448;599616067230655232;3264.4238;397
2025-11-18T23:22:03.456;599616067238333952;3272.103;424
2025-11-18T23:22:03.463;599616067246012672;3279.7815;489
2025-11-18T23:22:03.471;599616067253691392;3287.4604;437
2025-11-18T23:22:03.479;599616067261370112;3295.139;347
2025-11-18T23:22:03.486;599616067269048704;3302.8176;284
2025-11-18T23:22:03.494;599616067276727424;3310.4963;207
2025-11-18T23:22:03.502;599616067284406144;3318.175;32
2025-11-18T23:22:03.509;599616067292084864;3325.8538;-262
2025-11-18T23:22:03.517;599616067299763456;3333.5322;-472
2025-11-18T23:22:03.525;599616067307442176;3341.2112;-394
2025-11-18T23:22:03.532;599616067315120896;3348.8896;-219
2025-11-18T23:22:03.540;599616067322799552;3356.5684;-204
2025-11-18T23:22:03.548;599616067330478336;3364.247;-227
2025-11-18T23:22:03.555;599616067338157056;3371.926;-162
2025-11-18T23:22:03.563;599616067345835776;3379.6045;-114
2025-11-18T23:22:03.571;599616067353514368;3387.2832;-79
2025-11-18T23:22:03.578;599616067361193088;3394.962;-14
2025-11-18T23:22:03.586;599616067368871808;3402.6406;-79
2025-11-18T23:22:03.594;599616067376550528;3410.3193;-219
2025-11-18T23:22:03.601;599616067384229120;3417.9978;-179
2025-11-18T23:22:03.609;599616067391907840;3425.6768;-67
2025-11-18T23:22:03.617;599616067399586560;3433.3552;-89
2025-11-18T23:22:03.625;599616067407265280;3441.0342;-127
2025-11-18T23:22:03.632;599616067414944000;3448.7126;-74
2025-11-18T23:22:03.640;599616067422622592;3456.3914;-64
2025-11-18T23:22:03.648;599616067430301312;3464.07;-82
2025-11-18T23:22:03.655;599616067437980032;3471.7488;-29
2025-11-18T23:22:03.663;599616067445658752;3479.4275;57
2025-11-18T23:22:03.671;599616067453337344;3487.106;147
2025-11-18T23:22:03.678;599616067461016064;3494.785;232
2025-11-18T23:22:03.686;599616067468694784;3502.4634;209
2025-11-18T23:22:03.694;599616067476373504;3510.1426;77
2025-11-18T23:22:03.701;599616067484052096;3517.821;-59
2025-11-18T23:22:03.709;599616067491730816;3525.4998;-119
2025-11-18T23:22:03.717;599616067499409536;3533.1785;-129
2025-11-18T23:22:03.724;599616067507088256;3540.8572;-142
2025-11-18T23:22:03.732;599616067514766976;3548.536;-67
2025-11-18T23:22:03.740;599616067522445568;3556.2144;44
2025-11-18T23:22:03.747;599616067530124288;3563.8933;54
2025-11-18T23:22:03.755;599616067537803008;3571.5718;84
2025-11-18T23:22:03.763;599616067545481728;3579.2507;224
2025-11-18T23:22:03.770;599616067553160320;3586.9292;282
2025-11-18T23:22:03.778;599616067560839040;3594.608;207
2025-11-18T23:22:03.786;599616067568517760;3602.2866;157
2025-11-18T23:22:03.793;599616067576196480;3609.9653;139
2025-11-18T23:22:03.801;599616067583875200;3617.644;82
2025-11-18T23:22:03.809;599616067591553792;3625.3225;44
2025-11-18T23:22:03.817;599616067599232512;3633.0015;82
2025-11-18T23:22:03.824;599616067606911232;3640.68;147
2025-11-18T23:22:03.832;599616067614589952;3648.359;237
2025-11-18T23:22:03.840;599616067622268544;3656.0374;327
2025-11-18T23:22:03.847;599616067629947264;3663.716;342
2025-11-18T23:22:03.855;599616067637625984;3671.3948;297
2025-11-18T23:22:03.863;599616067645304704;3679.0735;224
2025-11-18T23:22:03.870;599616067652983424;3686.7522;132
2025-11-18T23:22:03.878;599616067660662016;3694.4307;119
2025-11-18T23:22:03.886;599616067668340736;3702.1096;147
2025-11-18T23:22:03.893;599616067676019456;3709.788;137
2025-11-18T23:22:03.901;599616067683698176;3717.467;154
2025-11-18T23:22:03.909;599616067691376768;3725.1455;199
2025-11-18T23:22:03.916;599616067699055488;3732.8242;177
2025-11-18T23:22:03.924;599616067706734208;3740.503;72
2025-11-18T23:22:03.932;599616067714412928;3748.1816;57
2025-11-18T23:22:03.939;599616067722091520;3755.8606;119
2025-11-18T23:22:03.947;599616067729770240;3763.539;54
2025-11-18T23:22:03.955;599616067737448960;3771.218;-99
2025-11-18T23:22:03.962;599616067745127680;3778.8965;-157
2025-11-18T23:22:03.970;599616067752806400;3786.5754;-219
2025-11-18T23:22:03.978;599616067760484992;3794.254;-429
2025-11-18T23:22:03.985;599616067768163712;3801.9326;-404
2025-11-18T23:22:03.993;599616067775842432;3809.6113;-52
2025-11-18T23:22:04.001;599616067783521152;3817.29;84
2025-11-18T23:22:04.008;599616067791199744;3824.9688;-127
2025-11-18T23:22:04.016;599616067798878464;3832.6472;-222
2025-11-18T23:22:04.024;599616067806557184;3840.3262;-47
2025-11-18T23:22:04.032;599616067814235904;3848.0046;44
2025-11-18T23:22:04.039;599616067821914624;3855.6836;-167
2025-11-18T23:22:04.047;599616067829593216;3863.362;-514
2025-11-18T23:22:04.055;599616067837271936;3871.0408;-734
2025-11-18T23:22:04.062;599616067844950656;3878.7195;-549
2025-11-18T23:22:04.070;599616067852629376;3886.3982;-74
2025-11-18T23:22:04.078;599616067860307968;3894.077;37
2025-11-18T23:22:04.085;599616067867986688;3901.7554;-197
2025-11-18T23:22:04.093;599616067875665408;3909.4343;-259
2025-11-18T23:22:04.101;599616067883344005;3917.1128;-189
2025-11-18T23:22:04.108;599616067891022720;3924.7915;-207
2025-11-18T23:22:04.116;599616067898701440;3932.4702;-302
2025-11-18T23:22:04.124;599616067906380160;3940.149;-354
2025-11-18T23:22:04.131;599616067914058752;3947.8276;-242
2025-11-18T23:22:04.139;599616067921737472;3955.506;-104
2025-11-18T23:22:04.147;599616067929416192;3963.185;-149
2025-11-18T23:22:04.154;599616067937094912;3970.8635;-357
2025-11-18T23:22:04.162;599616067944773504;3978.5422;-502
2025-11-18T23:22:04.170;599616067952452224;3986.221;-412
2025-11-18T23:22:04.177;599616067960130944;3993.8997;-389
2025-11-18T23:22:04.185;599616067967809664;4001.5786;-529
2025-11-18T23:22:04.193;599616067975488384;4009.2573;-474
2025-11-18T23:22:04.200;599616067983166976;4016.936;-342
2025-11-18T23:22:04.208;599616067990845696;4024.6145;-332
2025-11-18T23:22:04.216;599616067998524416;4032.2935;-239
2025-11-18T23:22:04.223;599616068006203136;4039.972;-32
2025-11-18T23:22:04.231;599616068013881728;4047.6506;2
2025-11-18T23:22:04.239;599616068021560448;4055.3293;-89
2025-11-18T23:22:04.247;599616068029239168;4063.008;39
2025-11-18T23:22:04.254;599616068036917888;4070.6868;134
2025-11-18T23:22:04.262;599616068044596480;4078.3652;-32
2025-11-18T23:22:04.270;599616068052275200;4086.0442;-69
2025-11-18T23:22:04.277;599616068059953920;4093.7227;64
2025-11-18T23:22:04.285;599616068067632640;4101.4014;49
2025-11-18T23:22:04.293;599616068075311360;4109.08;-182
2025-11-18T23:22:04.300;599616068082989952;4116.759;-619
2025-11-18T23:22:04.308;599616068090668672;4124.4375;-1244
2025-11-18T23:22:04.316;599616068098347392;4132.116;-1683
2025-11-18T23:22:04.323;599616068106026112;4139.795;-1748
2025-11-18T23:22:04.331;599616068113704704;4147.4736;-1786
2025-11-18T23:22:04.339;599616068121383424;4155.1523;-1813
2025-11-18T23:22:04.346;599616068129062144;4162.831;-1641
2025-11-18T23:22:04.354;599616068136740864;4170.51;-1411
2025-11-18T23:22:04.362;599616068144419584;4178.1885;-1329
2025-11-18T23:22:04.369;599616068152098176;4185.867;-1396
2025-11-18T23:22:04.377;599616068159776896;4193.546;-1486
2025-11-18T23:22:04.385;599616068167455616;4201.2246;-1381
2025-11-18T23:22:04.392;599616068175134336;4208.9033;-876
2025-11-18T23:22:04.400;599616068182812928;4216.5815;-177
2025-11-18T23:22:04.408;599616068190491648;4224.2607;369
2025-11-18T23:22:04.415;599616068198170368;4231.939;597
2025-11-18T23:22:04.423;599616068205849088;4239.618;519
2025-11-18T23:22:04.431;599616068213527808;4247.2964;354
2025-11-18T23:22:04.438;599616068221206400;4254.975;222
2025-11-18T23:22:04.446;599616068228885120;4262.654;147
2025-11-18T23:22:04.454;599616068236563840;4270.3325;-9
2025-11-18T23:22:04.462;599616068244242560;4278.011;-164
2025-11-18T23:22:04.469;599616068251921152;4285.69;-152
2025-11-18T23:22:04.477;599616068259599872;4293.3687;-299
2025-11-18T23:22:04.485;599616068267278592;4301.0474;-444
2025-11-18T23:22:04.492;599616068274957312;4308.726;-299
2025-11-18T23:22:04.500;599616068282635904;4316.405;-159
2025-11-18T23:22:04.508;599616068290314624;4324.0835;-137
2025-11-18T23:22:04.515;599616068297993344;4331.762;-132
2025-11-18T23:22:04.523;599616068305672064;4339.4404;-34
2025-11-18T23:22:04.531;599616068313350784;4347.1196;142
2025-11-18T23:22:04.538;599616068321029376;4354.798;164
2025-11-18T23:22:04.546;599616068328708096;4362.477;57
2025-11-18T23:22:04.554;599616068336386816;4370.156;22
2025-11-18T23:22:04.561;599616068344065536;4377.8345;62
2025-11-18T23:22:04.569;599616068351744128;4385.513;104
2025-11-18T23:22:04.577;599616068359422848;4393.1914;97
2025-11-18T23:22:04.584;599616068367101568;4400.8706;64
2025-11-18T23:22:04.592;599616068374780288;4408.5493;94
2025-11-18T23:22:04.600;599616068382459008;4416.228;137
2025-11-18T23:22:04.607;599616068390137600;4423.9062;124
2025-11-18T23:22:04.615;599616068397816320;4431.5854;97
2025-11-18T23:22:04.623;599616068405495040;4439.2637;-12
2025-11-18T23:22:04.630;599616068413173760;4446.943;-137
2025-11-18T23:22:04.638;599616068420852352;4454.621;-99
2025-11-18T23:22:04.646;599616068428531072;4462.3003;14
2025-11-18T23:22:04.653;599616068436209792;4469.9785;37
2025-11-18T23:22:04.661;599616068443888456;4477.657;-99
2025-11-18T23:22:04.669;599616068451567360;4485.336;-224
2025-11-18T23:22:04.677;599616068459246208;4493.015;-179
2025-11-18T23:22:04.684;599616068466925184;4500.694;-217
2025-11-18T23:22:04.692;599616068474604032;4508.373;-302
2025-11-18T23:22:04.700;599616068482283008;4516.052;-184
2025-11-18T23:22:04.707;599616068489961856;4523.731;-182
2025-11-18T23:22:04.715;599616068497640704;4531.409;-317
2025-11-18T23:22:04.723;599616068505319680;4539.0884;-209
2025-11-18T23:22:04.730;599616068512998528;4546.7676;-107
2025-11-18T23:22:04.738;599616068520677504;4554.4463;-172
2025-11-18T23:22:04.746;599616068528356352;4562.1255;-142
2025-11-18T23:22:04.753;599616068536035200;4569.8037;-12
2025-11-18T23:22:04.761;599616068543714176;4577.483;104
2025-11-18T23:22:04.769;599616068551393024;4585.1616;142
2025-11-18T23:22:04.776;599616068559072000;4592.841;67
2025-11-18T23:22:04.784;599616068566750848;4600.5195;-17
2025-11-18T23:22:04.792;599616068574429824;4608.1987;-34
2025-11-18T23:22:04.799;599616068582108672;4615.8774;17
2025-11-18T23:22:04.807;599616068589787520;4623.5566;62
2025-11-18T23:22:04.815;599616068597466496;4631.2354;52
2025-11-18T23:22:04.822;599616068605145344;4638.914;-47
2025-11-18T23:22:04.830;599616068612824320;4646.5933;-177
2025-11-18T23:22:04.838;599616068620503168;4654.272;-179
2025-11-18T23:22:04.845;599616068628182016;4661.951;-77
2025-11-18T23:22:04.853;599616068635860992;4669.63;9
2025-11-18T23:22:04.861;599616068643539840;4677.3086;84
2025-11-18T23:22:04.868;599616068651218816;4684.9873;127
2025-11-18T23:22:04.876;599616068658897664;4692.6665;77
2025-11-18T23:22:04.884;599616068666576512;4700.345;-52
2025-11-18T23:22:04.892;599616068674255488;4708.0244;-227
2025-11-18T23:22:04.899;599616068681934336;4715.703;-307
2025-11-18T23:22:04.907;599616068689613312;4723.3823;-217
2025-11-18T23:22:04.915;599616068697292160;4731.061;-154
2025-11-18T23:22:04.922;599616068704971008;4738.7397;-132
2025-11-18T23:22:04.930;599616068712649984;4746.4185;-32
2025-11-18T23:22:04.938;599616068720328832;4754.0977;17
2025-11-18T23:22:04.945;599616068728007808;4761.777;-79
2025-11-18T23:22:04.953;599616068735686656;4769.4556;-202
2025-11-18T23:22:04.961;599616068743365504;4777.1343;-207
2025-11-18T23:22:04.968;599616068751044480;4784.813;-152
2025-11-18T23:22:04.976;599616068758723328;4792.492;-164
2025-11-18T23:22:04.984;599616068766402304;4800.171;-157
2025-11-18T23:22:04.991;599616068774081152;4807.85;-79
2025-11-18T23:22:04.999;599616068781760128;4815.529;-74
2025-11-18T23:22:05.007;599616068789438976;4823.208;-217
2025-11-18T23:22:05.014;599616068797117824;4830.8867;-454
2025-11-18T23:22:05.022;599616068804796800;4838.566;-524
2025-11-18T23:22:05.030;599616068812475648;4846.244;-322
2025-11-18T23:22:05.037;599616068820154624;4853.9233;-177
2025-11-18T23:22:05.045;599616068827833472;4861.6025;-89
2025-11-18T23:22:05.053;599616068835512320;4869.2812;64
2025-11-18T23:22:05.060;599616068843191296;4876.9604;-34
2025-11-18T23:22:05.068;599616068850870144;4884.6387;-284
2025-11-18T23:22:05.076;599616068858549120;4892.318;-259
2025-11-18T23:22:05.083;599616068866227968;4899.9966;-79
2025-11-18T23:22:05.091;599616068873906816;4907.676;99
2025-11-18T23:22:05.099;599616068881585792;4915.3545;217
2025-11-18T23:22:05.107;599616068889264640;4923.0337;94
2025-11-18T23:22:05.114;599616068896943616;4930.7124;-84
2025-11-18T23:22:05.122;599616068904622464;4938.3916;-119
2025-11-18T23:22:05.130;599616068912301312;4946.07;-109
2025-11-18T23:22:05.137;599616068919980288;4953.749;-69
2025-11-18T23:22:05.145;599616068927659136;4961.4277;2
2025-11-18T23:22:05.153;599616068935338112;4969.107;7
2025-11-18T23:22:05.160;599616068943016960;4976.786;-39
2025-11-18T23:22:05.168;599616068950695808;4984.4644;-109
2025-11-18T23:22:05.176;599616068958374784;4992.1436;-77
2025-11-18T23:22:05.183;599616068966053632;4999.8223;77
2025-11-18T23:22:05.191;599616068973732608;5007.5015;47
2025-11-18T23:22:05.199;599616068981411456;5015.18;-134
2025-11-18T23:22:05.206;599616068989090432;5022.8594;-139
2025-11-18T23:22:05.214;599616068996769280;5030.538;-117
2025-11-18T23:22:05.222;599616069004448167;5038.2173;-224
2025-11-18T23:22:05.229;599616069012126720;5045.8955;-297
2025-11-18T23:22:05.237;599616069019805312;5053.574;-324
2025-11-18T23:22:05.245;599616069027483904;5061.2524;-122
2025-11-18T23:22:05.252;599616069035162624;5068.9316;207
2025-11-18T23:22:05.260;599616069042841216;5076.61;149
2025-11-18T23:22:05.268;599616069050519808;5084.2886;-49
2025-11-18T23:22:05.275;599616069058198400;5091.967;-94
2025-11-18T23:22:05.283;599616069065877120;5099.646;-64
2025-11-18T23:22:05.291;599616069073555712;5107.324;77
2025-11-18T23:22:05.299;599616069081234304;5115.003;122
2025-11-18T23:22:05.306;599616069088912896;5122.6816;102
2025-11-18T23:22:05.314;599616069096591616;5130.3604;79
2025-11-18T23:22:05.322;599616069104270208;5138.0386;-124
2025-11-18T23:22:05.329;599616069111948800;5145.718;-162
2025-11-18T23:22:05.337;599616069119627392;5153.396;162
2025-11-18T23:22:05.345;599616069127305984;5161.0747;409
2025-11-18T23:22:05.352;599616069134984704;5168.754;427
2025-11-18T23:22:05.360;599616069142663296;5176.432;447
2025-11-18T23:22:05.368;599616069150341888;5184.1104;547
2025-11-18T23:22:05.375;599616069158020480;5191.7896;517
2025-11-18T23:22:05.383;599616069165699200;5199.4683;359
2025-11-18T23:22:05.391;599616069173377792;5207.1465;372
2025-11-18T23:22:05.398;599616069181056384;5214.8257;427
2025-11-18T23:22:05.406;599616069188734976;5222.504;339
2025-11-18T23:22:05.414;599616069196413696;5230.1826;234
2025-11-18T23:22:05.421;599616069204092288;5237.8613;169
2025-11-18T23:22:05.429;599616069211770880;5245.54;267
2025-11-18T23:22:05.437;599616069219449472;5253.2183;352
2025-11-18T23:22:05.444;599616069227128064;5260.897;52
2025-11-18T23:22:05.452;599616069234806784;5268.5757;-307
2025-11-18T23:22:05.460;599616069242485376;5276.2544;-187
2025-11-18T23:22:05.467;599616069250163968;5283.9326;122
2025-11-18T23:22:05.475;599616069257842560;5291.6113;97
2025-11-18T23:22:05.483;599616069265521280;5299.29;49
2025-11-18T23:22:05.490;599616069273199872;5306.9688;247
2025-11-18T23:22:05.498;599616069280878464;5314.647;237
2025-11-18T23:22:05.506;599616069288557056;5322.326;39
2025-11-18T23:22:05.514;599616069296235776;5330.0044;67
2025-11-18T23:22:05.521;599616069303914368;5337.683;134
2025-11-18T23:22:05.529;599616069311592960;5345.362;74
2025-11-18T23:22:05.537;599616069319271552;5353.0405;-4
2025-11-18T23:22:05.544;599616069326950144;5360.7188;-44
2025-11-18T23:22:05.552;599616069334628864;5368.398;-14
2025-11-18T23:22:05.560;599616069342307456;5376.076;-12
2025-11-18T23:22:05.567;599616069349986048;5383.755;-59
2025-11-18T23:22:05.575;599616069357664640;5391.4336;-112
2025-11-18T23:22:05.583;599616069365343360;5399.1123;-352
2025-11-18T23:22:05.590;599616069373021952;5406.7905;-811
2025-11-18T23:22:05.598;599616069380700544;5414.4697;-966
2025-11-18T23:22:05.606;599616069388379136;5422.148;-764
2025-11-18T23:22:05.613;599616069396057728;5429.8267;-719
2025-11-18T23:22:05.621;599616069403736448;5437.5054;-727
2025-11-18T23:22:05.629;599616069411415040;5445.184;-654
2025-11-18T23:22:05.636;599616069419093632;5452.8623;-764
2025-11-18T23:22:05.644;599616069426772224;5460.541;-866
2025-11-18T23:22:05.652;599616069434450944;5468.2197;-779
2025-11-18T23:22:05.659;599616069442129536;5475.8984;-709
2025-11-18T23:22:05.667;599616069449808128;5483.5767;-604
2025-11-18T23:22:05.675;599616069457486720;5491.2554;-647
2025-11-18T23:22:05.682;599616069465165440;5498.934;-881
2025-11-18T23:22:05.690;599616069472844032;5506.613;-776
2025-11-18T23:22:05.698;599616069480522624;5514.291;-796
2025-11-18T23:22:05.705;599616069488201216;5521.97;-1299
2025-11-18T23:22:05.713;599616069495879808;5529.6484;-1434
2025-11-18T23:22:05.721;599616069503558528;5537.327;-1136
2025-11-18T23:22:05.729;599616069511237120;5545.006;-1136
2025-11-18T23:22:05.736;599616069518915712;5552.6846;-1301
2025-11-18T23:22:05.744;599616069526594304;5560.363;-1086
2025-11-18T23:22:05.752;599616069534273024;5568.042;-894
2025-11-18T23:22:05.759;599616069541951616;5575.72;-1076
2025-11-18T23:22:05.767;599616069549630208;5583.399;-1136
2025-11-18T23:22:05.775;599616069557308800;5591.078;-1111
2025-11-18T23:22:05.782;599616069564987532;5598.7563;-1161
2025-11-18T23:22:05.790;599616069572666112;5606.435;-1099
2025-11-18T23:22:05.798;599616069580344704;5614.114;-1021
2025-11-18T23:22:05.805;599616069588023296;5621.7925;-1024
2025-11-18T23:22:05.813;599616069595702016;5629.4707;-1041
2025-11-18T23:22:05.821;599616069603380608;5637.15;-1071
2025-11-18T23:22:05.828;599616069611059200;5644.828;-1081
2025-11-18T23:22:05.836;599616069618737792;5652.507;-926
2025-11-18T23:22:05.844;599616069626416512;5660.1855;-816
2025-11-18T23:22:05.851;599616069634095104;5667.8643;-964
2025-11-18T23:22:05.859;599616069641773696;5675.5425;-1036
2025-11-18T23:22:05.867;599616069649452288;5683.221;-789
2025-11-18T23:22:05.874;599616069657131008;5690.9;-352
2025-11-18T23:22:05.882;599616069664809600;5698.5786;-134
2025-11-18T23:22:05.890;599616069672488192;5706.257;-269
2025-11-18T23:22:05.897;599616069680166784;5713.9355;-487
2025-11-18T23:22:05.905;599616069687845376;5721.6143;-644
2025-11-18T23:22:05.913;599616069695524096;5729.293;-709
2025-11-18T23:22:05.920;599616069703202688;5736.971;-697
2025-11-18T23:22:05.928;599616069710881280;5744.6504;-547
2025-11-18T23:22:05.936;599616069718559872;5752.3286;-387
2025-11-18T23:22:05.944;599616069726238592;5760.0073;-472
2025-11-18T23:22:05.951;599616069733917184;5767.686;-594
2025-11-18T23:22:05.959;599616069741595776;5775.3647;-534
2025-11-18T23:22:05.967;599616069749274368;5783.043;-579
2025-11-18T23:22:05.974;599616069756953088;5790.722;-801
2025-11-18T23:22:05.982;599616069764631680;5798.4004;-662
2025-11-18T23:22:05.990;599616069772310272;5806.079;-277
2025-11-18T23:22:05.997;599616069779988864;5813.758;-239
2025-11-18T23:22:06.005;599616069787667456;5821.4365;-322
2025-11-18T23:22:06.013;599616069795346176;5829.1147;-189
2025-11-18T23:22:06.020;599616069803024768;5836.794;-177
2025-11-18T23:22:06.028;599616069810703360;5844.472;-352
2025-11-18T23:22:06.036;599616069818381952;5852.151;-324
2025-11-18T23:22:06.043;599616069826060672;5859.8296;-192
2025-11-18T23:22:06.051;599616069833739264;5867.5083;-229
2025-11-18T23:22:06.059;599616069841417856;5875.1865;-337
2025-11-18T23:22:06.066;599616069849096448;5882.865;-354
2025-11-18T23:22:06.074;599616069856775168;5890.544;-207
2025-11-18T23:22:06.082;599616069864453760;5898.2227;64
2025-11-18T23:22:06.089;599616069872132352;5905.901;409
2025-11-18T23:22:06.097;599616069879810944;5913.5796;589
2025-11-18T23:22:06.105;599616069887489536;5921.2583;469
2025-11-18T23:22:06.112;599616069895168256;5928.937;467
2025-11-18T23:22:06.120;599616069902846848;5936.615;634
2025-11-18T23:22:06.128;599616069910525440;5944.2944;649
2025-11-18T23:22:06.135;599616069918204032;5951.9727;519
2025-11-18T23:22:06.143;599616069925882752;5959.6514;347
2025-11-18T23:22:06.151;599616069933561344;5967.33;157
2025-11-18T23:22:06.159;599616069941239936;5975.009;37
2025-11-18T23:22:06.166;599616069948918528;5982.687;164
2025-11-18T23:22:06.174;599616069956597120;5990.366;439
2025-11-18T23:22:06.182;599616069964275840;5998.0444;537
2025-11-18T23:22:06.189;599616069971954432;6005.723;442
2025-11-18T23:22:06.197;599616069979633024;6013.4023;389
2025-11-18T23:22:06.205;599616069987311616;6021.0806;274
2025-11-18T23:22:06.212;599616069994990336;6028.7593;82
2025-11-18T23:22:06.220;599616070002668928;6036.438;132
2025-11-18T23:22:06.228;599616070010347520;6044.1167;212
2025-11-18T23:22:06.235;599616070018026112;6051.795;37
2025-11-18T23:22:06.243;599616070025704832;6059.474;-279
2025-11-18T23:22:06.251;599616070033383424;6067.1523;-382
2025-11-18T23:22:06.258;599616070041062016;6074.831;114
2025-11-18T23:22:06.266;599616070048740608;6082.5093;529
2025-11-18T23:22:06.274;599616070056419200;6090.188;232
2025-11-18T23:22:06.281;599616070064097920;6097.8667;-187
2025-11-18T23:22:06.289;599616070071776512;6105.5454;-334
2025-11-18T23:22:06.297;599616070079455104;6113.2236;-347
2025-11-18T23:22:06.304;599616070087133696;6120.903;-459
2025-11-18T23:22:06.312;599616070094812416;6128.581;-637
2025-11-18T23:22:06.320;599616070102491008;6136.26;-489
2025-11-18T23:22:06.327;599616070110169600;6143.9385;-387
2025-11-18T23:22:06.335;599616070117848192;6151.617;-767
2025-11-18T23:22:06.343;599616070125526897;6159.2954;-1034
2025-11-18T23:22:06.350;599616070133205888;6166.9746;-976
2025-11-18T23:22:06.358;599616070140884864;6174.6533;-906
2025-11-18T23:22:06.366;599616070148563968;6182.333;-921
2025-11-18T23:22:06.374;599616070156242944;6190.0117;-1091
2025-11-18T23:22:06.381;599616070163922048;6197.691;-1131
2025-11-18T23:22:06.389;599616070171601024;6205.3696;-1051
2025-11-18T23:22:06.397;599616070179280128;6213.049;-1089
2025-11-18T23:22:06.404;599616070186959104;6220.728;-944
2025-11-18T23:22:06.412;599616070194638208;6228.407;-702
2025-11-18T23:22:06.420;599616070202317184;6236.0864;-719
2025-11-18T23:22:06.427;599616070209996288;6243.765;-749
2025-11-18T23:22:06.435;599616070217675264;6251.4443;-549
2025-11-18T23:22:06.443;599616070225354368;6259.123;-454
2025-11-18T23:22:06.450;599616070233033344;6266.8022;-717
2025-11-18T23:22:06.458;599616070240712448;6274.481;-949
2025-11-18T23:22:06.466;599616070248391424;6282.16;-791
2025-11-18T23:22:06.473;599616070256070528;6289.839;-539
2025-11-18T23:22:06.481;599616070263749504;6297.518;-457
2025-11-18T23:22:06.489;599616070271428608;6305.1978;-424
2025-11-18T23:22:06.496;599616070279107584;6312.8765;-394
2025-11-18T23:22:06.504;599616070286786688;6320.5557;-287
2025-11-18T23:22:06.512;599616070294465664;6328.2344;-154
2025-11-18T23:22:06.519;599616070302144768;6335.9136;-207
2025-11-18T23:22:06.527;599616070309823744;6343.5923;-414
2025-11-18T23:22:06.535;599616070317502848;6351.272;-557
2025-11-18T23:22:06.542;599616070325181824;6358.9507;-509
2025-11-18T23:22:06.550;599616070332860928;6366.63;-424
2025-11-18T23:22:06.558;599616070340539904;6374.309;-449
2025-11-18T23:22:06.565;599616070348219008;6381.988;-577
2025-11-18T23:22:06.573;599616070355897984;6389.667;-629
2025-11-18T23:22:06.581;599616070363577088;6397.3457;-517
2025-11-18T23:22:06.589;599616070371256064;6405.025;-402
2025-11-18T23:22:06.596;599616070378935168;6412.7036;-324
2025-11-18T23:22:06.604;599616070386614144;6420.383;-54
2025-11-18T23:22:06.612;599616070394293248;6428.062;389
2025-11-18T23:22:06.619;599616070401972224;6435.741;534
2025-11-18T23:22:06.627;599616070409651328;6443.42;284
2025-11-18T23:22:06.635;599616070417330304;6451.099;67
2025-11-18T23:22:06.642;599616070425009408;6458.7783;-82
2025-11-18T23:22:06.650;599616070432688384;6466.457;-669
2025-11-18T23:22:06.658;599616070440367488;6474.1367;-1411
2025-11-18T23:22:06.665;599616070448046464;6481.8154;-1469
2025-11-18T23:22:06.673;599616070455725568;6489.4946;-1209
2025-11-18T23:22:06.681;599616070463404544;6497.1733;-1161
2025-11-18T23:22:06.688;599616070471083648;6504.8525;-1129
2025-11-18T23:22:06.696;599616070478762624;6512.5312;-1046
2025-11-18T23:22:06.704;599616070486441728;6520.2104;-936
2025-11-18T23:22:06.711;599616070494120704;6527.8896;-709
2025-11-18T23:22:06.719;599616070501799808;6535.5684;-554
2025-11-18T23:22:06.727;599616070509478784;6543.2476;-709
2025-11-18T23:22:06.734;599616070517157888;6550.927;-829
2025-11-18T23:22:06.742;599616070524836864;6558.606;-754
2025-11-18T23:22:06.750;599616070532515968;6566.2847;-684
2025-11-18T23:22:06.757;599616070540194944;6573.964;-522
2025-11-18T23:22:06.765;599616070547874048;6581.6426;-464
2025-11-18T23:22:06.773;599616070555553024;6589.322;-712
2025-11-18T23:22:06.781;599616070563232128;6597.001;-667
2025-11-18T23:22:06.788;599616070570911104;6604.68;-484
2025-11-18T23:22:06.796;599616070578590208;6612.3594;-854
2025-11-18T23:22:06.804;599616070586269184;6620.038;-1011
2025-11-18T23:22:06.811;599616070593948288;6627.7173;-619
2025-11-18T23:22:06.819;599616070601627264;6635.396;-552
2025-11-18T23:22:06.827;599616070609306368;6643.075;-821
2025-11-18T23:22:06.834;599616070616985344;6650.754;-914
2025-11-18T23:22:06.842;599616070624664448;6658.433;-864
2025-11-18T23:22:06.850;599616070632343424;6666.112;-859
2025-11-18T23:22:06.857;599616070640022528;6673.7915;-909
2025-11-18T23:22:06.865;599616070647701504;6681.4707;-1026
2025-11-18T23:22:06.873;599616070655380608;6689.1494;-1049
2025-11-18T23:22:06.880;599616070663059584;6696.8286;-891
2025-11-18T23:22:06.888;599616070670738688;6704.5073;-709
2025-11-18T23:22:06.896;599616070678417664;6712.1865;-454
2025-11-18T23:22:06.903;599616070686096778;6719.8657;-287
2025-11-18T23:22:06.911;599616070693775488;6727.5444;-509
2025-11-18T23:22:06.919;599616070701454208;6735.2227;-724
2025-11-18T23:22:06.926;599616070709132928;6742.902;-607
2025-11-18T23:22:06.934;599616070716811520;6750.58;-429
2025-11-18T23:22:06.942;599616070724490240;6758.2593;-362
2025-11-18T23:22:06.949;599616070732168960;6765.9375;-417
2025-11-18T23:22:06.957;599616070739847680;6773.6167;-437
2025-11-18T23:22:06.965;599616070747526272;6781.295;-284
2025-11-18T23:22:06.972;599616070755204992;6788.9736;-202
2025-11-18T23:22:06.980;599616070762883712;6796.6523;-262
2025-11-18T23:22:06.988;599616070770562432;6804.3315;-254
2025-11-18T23:22:06.996;599616070778241152;6812.01;-184
2025-11-18T23:22:07.003;599616070785919744;6819.6885;-162
2025-11-18T23:22:07.011;599616070793598464;6827.367;-104
2025-11-18T23:22:07.019;599616070801277184;6835.046;-4
2025-11-18T23:22:07.026;599616070808955904;6842.725;2
2025-11-18T23:22:07.034;599616070816634496;6850.4033;19
2025-11-18T23:22:07.042;599616070824313216;6858.0825;87
2025-11-18T23:22:07.049;599616070831991936;6865.7607;62
2025-11-18T23:22:07.057;599616070839670656;6873.4395;24
2025-11-18T23:22:07.065;599616070847349248;6881.118;64
2025-11-18T23:22:07.072;599616070855027968;6888.797;79
2025-11-18T23:22:07.080;599616070862706688;6896.4756;79
2025-11-18T23:22:07.088;599616070870385408;6904.1543;114
2025-11-18T23:22:07.095;599616070878064128;6911.833;92
2025-11-18T23:22:07.103;599616070885742720;6919.5117;14
2025-11-18T23:22:07.111;599616070893421440;6927.19;-14
2025-11-18T23:22:07.118;599616070901100160;6934.869;-4
2025-11-18T23:22:07.126;599616070908778880;6942.548;-57
2025-11-18T23:22:07.134;599616070916457472;6950.2266;-192
2025-11-18T23:22:07.141;599616070924136192;6957.905;-192
2025-11-18T23:22:07.149;599616070931814912;6965.584;-39
2025-11-18T23:22:07.157;599616070939493632;6973.262;-14
2025-11-18T23:22:07.164;599616070947172352;6980.9414;-54
2025-11-18T23:22:07.172;599616070954850944;6988.6196;4
2025-11-18T23:22:07.180;599616070962529664;6996.299;-12
2025-11-18T23:22:07.187;599616070970208384;7003.977;-64
2025-11-18T23:22:07.195;599616070977887104;7011.656;7
2025-11-18T23:22:07.203;599616070985565696;7019.3345;12
2025-11-18T23:22:07.211;599616070993244416;7027.013;-109
2025-11-18T23:22:07.218;599616071000923136;7034.692;-142
2025-11-18T23:22:07.226;599616071008601856;7042.3706;-82
2025-11-18T23:22:07.234;599616071016280576;7050.0493;-74
2025-11-18T23:22:07.241;599616071023959168;7057.728;-104
2025-11-18T23:22:07.249;599616071031637888;7065.4062;-159
2025-11-18T23:22:07.257;599616071039316608;7073.0854;-207
2025-11-18T23:22:07.264;599616071046995328;7080.7646;-184
2025-11-18T23:22:07.272;599616071054673920;7088.443;-124
2025-11-18T23:22:07.280;599616071062352640;7096.1216;-62
2025-11-18T23:22:07.287;599616071070031360;7103.8003;-32
2025-11-18T23:22:07.295;599616071077710080;7111.479;-74
2025-11-18T23:22:07.303;599616071085388672;7119.157;-109
2025-11-18T23:22:07.310;599616071093067392;7126.8364;-94
2025-11-18T23:22:07.318;599616071100746112;7134.515;-132
2025-11-18T23:22:07.326;599616071108424832;7142.194;-199
2025-11-18T23:22:07.333;599616071116103552;7149.872;-142
2025-11-18T23:22:07.341;599616071123782144;7157.5513;37
2025-11-18T23:22:07.349;599616071131460864;7165.2295;139
2025-11-18T23:22:07.356;599616071139139584;7172.9087;102
2025-11-18T23:22:07.364;599616071146818304;7180.587;149
2025-11-18T23:22:07.372;599616071154496896;7188.266;389
2025-11-18T23:22:07.379;599616071162175616;7195.9443;437
2025-11-18T23:22:07.387;599616071169854336;7203.623;152
2025-11-18T23:22:07.395;599616071177533056;7211.302;19
2025-11-18T23:22:07.402;599616071185211776;7218.981;104
2025-11-18T23:22:07.410;599616071192890368;7226.659;-27
2025-11-18T23:22:07.418;599616071200569088;7234.338;-279
2025-11-18T23:22:07.426;599616071208247808;7242.0166;-242
2025-11-18T23:22:07.433;599616071215926528;7249.6953;-87
2025-11-18T23:22:07.441;599616071223605120;7257.3735;-109
2025-11-18T23:22:07.449;599616071231283840;7265.0527;-132
2025-11-18T23:22:07.456;599616071238962560;7272.7314;-142
2025-11-18T23:22:07.464;599616071246641231;7280.41;-267
2025-11-18T23:22:07.472;599616071254320000;7288.0884;-317
2025-11-18T23:22:07.479;599616071261998720;7295.7676;-262
2025-11-18T23:22:07.487;599616071269677440;7303.4463;-322
2025-11-18T23:22:07.495;599616071277356032;7311.125;-414
2025-11-18T23:22:07.502;599616071285034752;7318.803;-384
2025-11-18T23:22:07.510;599616071292713472;7326.4824;-342
2025-11-18T23:22:07.518;599616071300392192;7334.161;-392
2025-11-18T23:22:07.525;599616071308070784;7341.8394;-497
2025-11-18T23:22:07.533;599616071315749504;7349.5186;-517
2025-11-18T23:22:07.541;599616071323428224;7357.1973;-427
2025-11-18T23:22:07.548;599616071331106944;7364.876;-342
2025-11-18T23:22:07.556;599616071338785664;7372.554;-317
2025-11-18T23:22:07.564;599616071346464256;7380.2334;-349
2025-11-18T23:22:07.571;599616071354142976;7387.9116;-397
2025-11-18T23:22:07.579;599616071361821696;7395.591;-337
2025-11-18T23:22:07.587;599616071369500416;7403.269;-172
2025-11-18T23:22:07.594;599616071377179008;7410.948;-139
2025-11-18T23:22:07.602;599616071384857728;7418.6265;-134
2025-11-18T23:22:07.610;599616071392536448;7426.305;-44
2025-11-18T23:22:07.617;599616071400215168;7433.984;-164
2025-11-18T23:22:07.625;599616071407893760;7441.6626;-344
2025-11-18T23:22:07.633;599616071415572480;7449.3413;-322
2025-11-18T23:22:07.641;599616071423251200;7457.02;-272
2025-11-18T23:22:07.648;599616071430929920;7464.6987;-189
2025-11-18T23:22:07.656;599616071438608640;7472.3774;-109
2025-11-18T23:22:07.664;599616071446287232;7480.0557;-259
2025-11-18T23:22:07.671;599616071453965952;7487.735;-342
2025-11-18T23:22:07.679;599616071461644672;7495.4136;-207
2025-11-18T23:22:07.687;599616071469323392;7503.0923;-242
2025-11-18T23:22:07.694;599616071477001984;7510.7705;-289
2025-11-18T23:22:07.702;599616071484680704;7518.4497;-194
2025-11-18T23:22:07.710;599616071492359424;7526.128;-232
2025-11-18T23:22:07.717;599616071500038144;7533.807;-272
2025-11-18T23:22:07.725;599616071507716864;7541.4854;-147
2025-11-18T23:22:07.733;599616071515395456;7549.1646;87
2025-11-18T23:22:07.740;599616071523074176;7556.843;179
2025-11-18T23:22:07.748;599616071530752896;7564.5215;-32
2025-11-18T23:22:07.756;599616071538431616;7572.2007;32
2025-11-18T23:22:07.763;599616071546110208;7579.879;239
2025-11-18T23:22:07.771;599616071553788928;7587.558;-32
2025-11-18T23:22:07.779;599616071561467648;7595.2363;-292
2025-11-18T23:22:07.786;599616071569146368;7602.9155;-264
2025-11-18T23:22:07.794;599616071576825088;7610.5938;-229
2025-11-18T23:22:07.802;599616071584503680;7618.2725;-332
2025-11-18T23:22:07.809;599616071592182400;7625.951;-464
2025-11-18T23:22:07.817;599616071599861120;7633.6304;-377
2025-11-18T23:22:07.825;599616071607539840;7641.3086;-277
2025-11-18T23:22:07.832;599616071615218432;7648.9873;-297
2025-11-18T23:22:07.840;599616071622897152;7656.666;-224
2025-11-18T23:22:07.848;599616071630575872;7664.3447;-279
2025-11-18T23:22:07.856;599616071638254592;7672.0234;-434
2025-11-18T23:22:07.863;599616071645933184;7679.702;-144
2025-11-18T23:22:07.871;599616071653611904;7687.381;437
2025-11-18T23:22:07.879;599616071661290624;7695.0596;694
2025-11-18T23:22:07.886;599616071668969344;7702.738;582
2025-11-18T23:22:07.894;599616071676648064;7710.417;434
2025-11-18T23:22:07.902;599616071684326656;7718.095;427
2025-11-18T23:22:07.909;599616071692005376;7725.7744;547
2025-11-18T23:22:07.917;599616071699684096;7733.4526;594
2025-11-18T23:22:07.925;599616071707362816;7741.132;427
2025-11-18T23:22:07.932;599616071715041408;7748.81;309
2025-11-18T23:22:07.940;599616071722720128;7756.489;362
2025-11-18T23:22:07.948;599616071730398848;7764.1675;422
2025-11-18T23:22:07.955;599616071738077568;7771.8467;469
2025-11-18T23:22:07.963;599616071745756288;7779.525;484
2025-11-18T23:22:07.971;599616071753434880;7787.2036;417
2025-11-18T23:22:07.978;599616071761113600;7794.8823;364
2025-11-18T23:22:07.986;599616071768792320;7802.561;382
2025-11-18T23:22:07.994;599616071776471040;7810.24;289
2025-11-18T23:22:08.001;599616071784149632;7817.9185;154
2025-11-18T23:22:08.009;599616071791828352;7825.5977;174
2025-11-18T23:22:08.017;599616071799507072;7833.276;57
2025-11-18T23:22:08.024;599616071807185682;7840.9546;-319
2025-11-18T23:22:08.032;599616071814864384;7848.6333;-492
2025-11-18T23:22:08.040;599616071822543104;7856.312;-282
2025-11-18T23:22:08.047;599616071830221824;7863.9907;-84
2025-11-18T23:22:08.055;599616071837900416;7871.6694;-137
2025-11-18T23:22:08.063;599616071845579136;7879.348;-177
2025-11-18T23:22:08.071;599616071853257856;7887.027;-54
2025-11-18T23:22:08.078;599616071860936576;7894.705;97
2025-11-18T23:22:08.086;599616071868615168;7902.3843;184
2025-11-18T23:22:08.094;599616071876293888;7910.0625;169
2025-11-18T23:22:08.101;599616071883972608;7917.7417;152
2025-11-18T23:22:08.109;599616071891651328;7925.42;229
2025-11-18T23:22:08.117;599616071899330048;7933.099;287
2025-11-18T23:22:08.124;599616071907008640;7940.7773;249
2025-11-18T23:22:08.132;599616071914687360;7948.456;142
2025-11-18T23:22:08.140;599616071922366080;7956.135;54
2025-11-18T23:22:08.147;599616071930044800;7963.814;92
2025-11-18T23:22:08.155;599616071937723392;7971.492;109
2025-11-18T23:22:08.163;599616071945402112;7979.171;64
2025-11-18T23:22:08.170;599616071953080832;7986.8496;137
2025-11-18T23:22:08.178;599616071960759552;7994.5283;237
2025-11-18T23:22:08.186;599616071968438144;8002.2065;257
2025-11-18T23:22:08.193;599616071976116864;8009.8857;259
2025-11-18T23:22:08.201;599616071983795584;8017.5645;284
2025-11-18T23:22:08.209;599616071991474304;8025.243;312
2025-11-18T23:22:08.216;599616071999153024;8032.9214;259
2025-11-18T23:22:08.224;599616072006831616;8040.6006;194
2025-11-18T23:22:08.232;599616072014510336;8048.279;242
2025-11-18T23:22:08.239;599616072022189056;8055.958;374
2025-11-18T23:22:08.247;599616072029867776;8063.6367;562
2025-11-18T23:22:08.255;599616072037546368;8071.3154;697
2025-11-18T23:22:08.262;599616072045225088;8078.994;609
2025-11-18T23:22:08.270;599616072052903808;8086.6724;389
2025-11-18T23:22:08.278;599616072060582528;8094.3516;269
2025-11-18T23:22:08.286;599616072068261248;8102.0303;304
2025-11-18T23:22:08.293;599616072075939840;8109.709;369
2025-11-18T23:22:08.301;599616072083618560;8117.387;404
2025-11-18T23:22:08.309;599616072091297280;8125.0664;452
2025-11-18T23:22:08.316;599616072098976000;8132.7446;452
2025-11-18T23:22:08.324;599616072106654592;8140.4233;357
2025-11-18T23:22:08.332;599616072114333312;8148.102;309
2025-11-18T23:22:08.339;599616072122012032;8155.7812;317
2025-11-18T23:22:08.347;599616072129690752;8163.4595;294
2025-11-18T23:22:08.355;599616072137369472;8171.138;304
2025-11-18T23:22:08.362;599616072145048064;8178.817;344
2025-11-18T23:22:08.370;599616072152726784;8186.4956;377
2025-11-18T23:22:08.378;599616072160405504;8194.175;387
2025-11-18T23:22:08.385;599616072168084224;8201.853;387
2025-11-18T23:22:08.393;599616072175762816;8209.532;367
2025-11-18T23:22:08.401;599616072183441536;8217.21;319
2025-11-18T23:22:08.408;599616072191120256;8224.889;292
2025-11-18T23:22:08.416;599616072198798976;8232.567;289
2025-11-18T23:22:08.424;599616072206477568;8240.246;254
2025-11-18T23:22:08.431;599616072214156288;8247.925;184
2025-11-18T23:22:08.439;599616072221835008;8255.604;137
2025-11-18T23:22:08.447;599616072229513728;8263.282;97
2025-11-18T23:22:08.454;599616072237192448;8270.961;84
2025-11-18T23:22:08.462;599616072244871040;8278.64;177
2025-11-18T23:22:08.470;599616072252549760;8286.318;302
2025-11-18T23:22:08.477;599616072260228480;8293.998;327
2025-11-18T23:22:08.485;599616072267907200;8301.676;282
2025-11-18T23:22:08.493;599616072275585792;8309.3545;269
2025-11-18T23:22:08.501;599616072283264512;8317.033;297
2025-11-18T23:22:08.508;599616072290943232;8324.712;294
2025-11-18T23:22:08.516;599616072298621952;8332.391;254
2025-11-18T23:22:08.524;599616072306300672;8340.069;249
2025-11-18T23:22:08.531;599616072313979264;8347.748;254
2025-11-18T23:22:08.539;599616072321657984;8355.427;224
2025-11-18T23:22:08.547;599616072329336704;8363.105;162
2025-11-18T23:22:08.554;599616072337015424;8370.784;32
2025-11-18T23:22:08.562;599616072344694016;8378.463;-114
2025-11-18T23:22:08.570;599616072352372736;8386.142;-89
2025-11-18T23:22:08.577;599616072360051456;8393.82;52
2025-11-18T23:22:08.585;599616072367730133;8401.499;87
2025-11-18T23:22:08.593;599616072375409024;8409.178;52
2025-11-18T23:22:08.600;599616072383087872;8416.856;-2
2025-11-18T23:22:08.608;599616072390766720;8424.535;-157
2025-11-18T23:22:08.616;599616072398445568;8432.215;-277
2025-11-18T23:22:08.623;599616072406124288;8439.893;-242
2025-11-18T23:22:08.631;599616072413803136;8447.572;-232
2025-11-18T23:22:08.639;599616072421481984;8455.251;-287
2025-11-18T23:22:08.646;599616072429160832;8462.93;-352
2025-11-18T23:22:08.654;599616072436839680;8470.608;-424
2025-11-18T23:22:08.662;599616072444518528;8478.287;-359
2025-11-18T23:22:08.669;599616072452197376;8485.967;-222
2025-11-18T23:22:08.677;599616072459876096;8493.645;-259
2025-11-18T23:22:08.685;599616072467554944;8501.324;-377
2025-11-18T23:22:08.693;599616072475233792;8509.003;-364
2025-11-18T23:22:08.700;599616072482912640;8516.682;-272
2025-11-18T23:22:08.708;599616072490591488;8524.36;-212
2025-11-18T23:22:08.716;599616072498270336;8532.039;-237
2025-11-18T23:22:08.723;599616072505949184;8539.718;-382
2025-11-18T23:22:08.731;599616072513628032;8547.396;-502
2025-11-18T23:22:08.739;599616072521306752;8555.075;-472
2025-11-18T23:22:08.746;599616072528985600;8562.755;-432
2025-11-18T23:22:08.754;599616072536664448;8570.434;-482
2025-11-18T23:22:08.762;599616072544343296;8578.112;-502
2025-11-18T23:22:08.769;599616072552022144;8585.791;-384
2025-11-18T23:22:08.777;599616072559700992;8593.47;-322
2025-11-18T23:22:08.785;599616072567379840;8601.148;-507
2025-11-18T23:22:08.792;599616072575058560;8608.827;-627
2025-11-18T23:22:08.800;599616072582737408;8616.507;-467
2025-11-18T23:22:08.808;599616072590416256;8624.186;-359
2025-11-18T23:22:08.815;599616072598095104;8631.864;-412
2025-11-18T23:22:08.823;599616072605773952;8639.543;-407
2025-11-18T23:22:08.831;599616072613452800;8647.222;-464
2025-11-18T23:22:08.838;599616072621131648;8654.9;-532
2025-11-18T23:22:08.846;599616072628810368;8662.579;-377
2025-11-18T23:22:08.854;599616072636489216;8670.258;-259
2025-11-18T23:22:08.861;599616072644168064;8677.9375;-262
2025-11-18T23:22:08.869;599616072651846912;8685.616;-212
2025-11-18T23:22:08.877;599616072659525760;8693.295;-167
2025-11-18T23:22:08.884;599616072667204608;8700.973;-239
2025-11-18T23:22:08.892;599616072674883456;8708.652;-434
2025-11-18T23:22:08.900;599616072682562304;8716.331;-572
2025-11-18T23:22:08.908;599616072690241024;8724.01;-572
2025-11-18T23:22:08.915;599616072697919872;8731.688;-602
2025-11-18T23:22:08.923;599616072705598720;8739.368;-684
2025-11-18T23:22:08.931;599616072713277568;8747.047;-667
2025-11-18T23:22:08.938;599616072720956416;8754.725;-484
2025-11-18T23:22:08.946;599616072728635264;8762.404;-417
2025-11-18T23:22:08.954;599616072736314112;8770.083;-689
2025-11-18T23:22:08.961;599616072743992832;8777.762;-789
2025-11-18T23:22:08.969;599616072751671680;8785.44;-559
2025-11-18T23:22:08.977;599616072759350528;8793.12;-404
2025-11-18T23:22:08.984;599616072767029376;8800.799;-307
2025-11-18T23:22:08.992;599616072774708224;8808.477;-229
2025-11-18T23:22:09.000;599616072782387072;8816.155;-202
2025-11-18T23:22:09.007;599616072790065920;8823.835;-172
2025-11-18T23:22:09.015;599616072797744640;8831.514;-152
2025-11-18T23:22:09.023;599616072805423488;8839.192;-177
2025-11-18T23:22:09.030;599616072813102336;8846.871;-222
2025-11-18T23:22:09.038;599616072820781184;8854.551;-167
2025-11-18T23:22:09.046;599616072828460032;8862.229;-69
2025-11-18T23:22:09.053;599616072836138880;8869.907;-72
2025-11-18T23:22:09.061;599616072843817728;8877.587;-134
2025-11-18T23:22:09.069;599616072851496576;8885.266;-169
2025-11-18T23:22:09.076;599616072859175296;8892.944;-182
2025-11-18T23:22:09.084;599616072866854144;8900.623;-197
2025-11-18T23:22:09.092;599616072874532992;8908.303;-129
2025-11-18T23:22:09.099;599616072882211840;8915.98;-64
2025-11-18T23:22:09.107;599616072889890688;8923.659;-122
2025-11-18T23:22:09.115;599616072897569536;8931.338;-137
2025-11-18T23:22:09.123;599616072905248384;8939.018;-114
2025-11-18T23:22:09.130;599616072912927104;8946.696;-139
2025-11-18T23:22:09.138;599616072920605952;8954.375;-147
2025-11-18T23:22:09.146;599616072928284758;8962.053;-204
2025-11-18T23:22:09.153;599616072935963776;8969.732;-277
2025-11-18T23:22:09.161;599616072943642752;8977.412;-292
2025-11-18T23:22:09.169;599616072951321728;8985.09;-312
2025-11-18T23:22:09.176;599616072959000704;8992.7705;-289
2025-11-18T23:22:09.184;599616072966679680;9000.448;-227
2025-11-18T23:22:09.192;599616072974358656;9008.128;-239
2025-11-18T23:22:09.199;599616072982037632;9015.806;-244
2025-11-18T23:22:09.207;599616072989716608;9023.486;-112
2025-11-18T23:22:09.215;599616072997395584;9031.164;-57
2025-11-18T23:22:09.222;599616073005074560;9038.844;-287
2025-11-18T23:22:09.230;599616073012753536;9046.521;-439
2025-11-18T23:22:09.238;599616073020432384;9054.201;-329
2025-11-18T23:22:09.245;599616073028111360;9061.88;-342
2025-11-18T23:22:09.253;599616073035790336;9069.559;-524
2025-11-18T23:22:09.261;599616073043469312;9077.237;-544
2025-11-18T23:22:09.268;599616073051148288;9084.917;-497
2025-11-18T23:22:09.276;599616073058827264;9092.596;-539
2025-11-18T23:22:09.284;599616073066506240;9100.274;-379
2025-11-18T23:22:09.291;599616073074185216;9107.954;-162
2025-11-18T23:22:09.299;599616073081864192;9115.633;-229
2025-11-18T23:22:09.307;599616073089543168;9123.312;-324
2025-11-18T23:22:09.314;599616073097222144;9130.99;-282
2025-11-18T23:22:09.322;599616073104901120;9138.67;-252
2025-11-18T23:22:09.330;599616073112580096;9146.349;-254
2025-11-18T23:22:09.338;599616073120259072;9154.027;-337
2025-11-18T23:22:09.345;599616073127938048;9161.706;-442
2025-11-18T23:22:09.353;599616073135617024;9169.386;-412
2025-11-18T23:22:09.361;599616073143296000;9177.064;-307
2025-11-18T23:22:09.368;599616073150974976;9184.743;-209
2025-11-18T23:22:09.376;599616073158653952;9192.423;-264
2025-11-18T23:22:09.384;599616073166332928;9200.102;-284
2025-11-18T23:22:09.391;599616073174011776;9207.78;-64
2025-11-18T23:22:09.399;599616073181690752;9215.459;-32
2025-11-18T23:22:09.407;599616073189369728;9223.139;-339
2025-11-18T23:22:09.414;599616073197048704;9230.817;-447
2025-11-18T23:22:09.422;599616073204727680;9238.496;-242
2025-11-18T23:22:09.430;599616073212406656;9246.175;-89
2025-11-18T23:22:09.437;599616073220085632;9253.8545;-2
2025-11-18T23:22:09.445;599616073227764608;9261.533;77
2025-11-18T23:22:09.453;599616073235443584;9269.212;57
2025-11-18T23:22:09.460;599616073243122560;9276.892;27
2025-11-18T23:22:09.468;599616073250801536;9284.57;59
2025-11-18T23:22:09.476;599616073258480512;9292.249;114
2025-11-18T23:22:09.483;599616073266159488;9299.928;139
2025-11-18T23:22:09.491;599616073273838464;9307.607;182
2025-11-18T23:22:09.499;599616073281517440;9315.286;324
2025-11-18T23:22:09.506;599616073289196416;9322.965;357
2025-11-18T23:22:09.514;599616073296875392;9330.644;269
2025-11-18T23:22:09.522;599616073304554368;9338.323;322
2025-11-18T23:22:09.530;599616073312233344;9346.002;329
2025-11-18T23:22:09.537;599616073319912320;9353.681;212
2025-11-18T23:22:09.545;599616073327591296;9361.36;194
2025-11-18T23:22:09.553;599616073335270144;9369.039;234
2025-11-18T23:22:09.560;599616073342949120;9376.718;307
2025-11-18T23:22:09.568;599616073350628096;9384.396;437
2025-11-18T23:22:09.576;599616073358307072;9392.076;457
2025-11-18T23:22:09.583;599616073365986048;9399.755;402
2025-11-18T23:22:09.591;599616073373665024;9407.434;467
2025-11-18T23:22:09.599;599616073381344000;9415.112;582
2025-11-18T23:22:09.606;599616073389022976;9422.792;569
2025-11-18T23:22:09.614;599616073396701952;9430.471;457
2025-11-18T23:22:09.622;599616073404380928;9438.149;454
2025-11-18T23:22:09.629;599616073412059904;9445.828;589
2025-11-18T23:22:09.637;599616073419738880;9453.508;667
2025-11-18T23:22:09.645;599616073427417856;9461.187;712
2025-11-18T23:22:09.652;599616073435096832;9468.865;806
2025-11-18T23:22:09.660;599616073442775808;9476.545;869
2025-11-18T23:22:09.668;599616073450454784;9484.224;856
2025-11-18T23:22:09.675;599616073458133760;9491.902;779
2025-11-18T23:22:09.683;599616073465812736;9499.581;592
2025-11-18T23:22:09.691;599616073473491712;9507.261;389
2025-11-18T23:22:09.698;599616073481170688;9514.939;332
2025-11-18T23:22:09.706;599616073488849553;9522.618;354
2025-11-18T23:22:09.714;599616073496528256;9530.297;374
2025-11-18T23:22:09.721;599616073504206976;9537.977;399
2025-11-18T23:22:09.729;599616073511885696;9545.654;419
2025-11-18T23:22:09.737;599616073519564288;9553.333;377
2025-11-18T23:22:09.745;599616073527243008;9561.013;309
2025-11-18T23:22:09.752;599616073534921728;9568.69;294
2025-11-18T23:22:09.760;599616073542600448;9576.369;149
2025-11-18T23:22:09.768;599616073550279040;9584.048;-9
2025-11-18T23:22:09.775;599616073557957760;9591.727;104
2025-11-18T23:22:09.783;599616073565636480;9599.405;77
2025-11-18T23:22:09.791;599616073573315200;9607.084;-192
2025-11-18T23:22:09.798;599616073580993920;9614.763;-237
2025-11-18T23:22:09.806;599616073588672512;9622.441;-119
2025-11-18T23:22:09.814;599616073596351232;9630.12;-149
2025-11-18T23:22:09.821;599616073604029952;9637.799;-212
2025-11-18T23:22:09.829;599616073611708672;9645.478;-147
2025-11-18T23:22:09.837;599616073619387264;9653.156;-74
2025-11-18T23:22:09.844;599616073627065984;9660.835;-42
2025-11-18T23:22:09.852;599616073634744704;9668.514;-12
2025-11-18T23:22:09.860;599616073642423424;9676.191;37
2025-11-18T23:22:09.867;599616073650102016;9683.871;134
2025-11-18T23:22:09.875;599616073657780736;9691.55;167
2025-11-18T23:22:09.883;599616073665459456;9699.229;97
2025-11-18T23:22:09.890;599616073673138176;9706.906;52
2025-11-18T23:22:09.898;599616073680816896;9714.586;-22
2025-11-18T23:22:09.906;599616073688495488;9722.265;-142
2025-11-18T23:22:09.913;599616073696174208;9729.943;-159
2025-11-18T23:22:09.921;599616073703852928;9737.621;-79
2025-11-18T23:22:09.929;599616073711531648;9745.301;79
2025-11-18T23:22:09.936;599616073719210240;9752.9795;234
2025-11-18T23:22:09.944;599616073726888960;9760.657;202
2025-11-18T23:22:09.952;599616073734567680;9768.336;102
2025-11-18T23:22:09.960;599616073742246400;9776.016;64
2025-11-18T23:22:09.967;599616073749925120;9783.694;19
2025-11-18T23:22:09.975;599616073757603712;9791.372;47
2025-11-18T23:22:09.983;599616073765282432;9799.051;159
2025-11-18T23:22:09.990;599616073772961152;9806.73;222
2025-11-18T23:22:09.998;599616073780639872;9814.409;204
2025-11-18T23:22:10.006;599616073788318464;9822.087;172
2025-11-18T23:22:10.013;599616073795997184;9829.767;227
2025-11-18T23:22:10.021;599616073803675904;9837.445;292
2025-11-18T23:22:10.029;599616073811354624;9845.123;272
2025-11-18T23:22:10.036;599616073819033344;9852.802;247
2025-11-18T23:22:10.044;599616073826711936;9860.481;159
2025-11-18T23:22:10.052;599616073834390656;9868.159;-7
2025-11-18T23:22:10.059;599616073842069376;9875.838;-47
2025-11-18T23:22:10.067;599616073849748096;9883.517;19
2025-11-18T23:22:10.075;599616073857426688;9891.196;14
2025-11-18T23:22:10.082;599616073865105408;9898.874;-14
2025-11-18T23:22:10.090;599616073872784128;9906.553;4
2025-11-18T23:22:10.098;599616073880462848;9914.231;49
2025-11-18T23:22:10.105;599616073888141440;9921.911;107
2025-11-18T23:22:10.113;599616073895820160;9929.589;112
2025-11-18T23:22:10.121;599616073903498880;9937.268;24
2025-11-18T23:22:10.128;599616073911177600;9944.946;-27
2025-11-18T23:22:10.136;599616073918856320;9952.625;17
2025-11-18T23:22:10.144;599616073926534912;9960.304;39
2025-11-18T23:22:10.151;599616073934213632;9967.982;69
2025-11-18T23:22:10.159;599616073941892352;9975.661;117
2025-11-18T23:22:10.167;599616073949571072;9983.34;37
2025-11-18T23:22:10.175;599616073957249664;9991.019;-52
2025-11-18T23:22:10.182;599616073964928384;9998.697;-39
2025-11-18T23:22:10.190;599616073972607104;10006.376;-77
2025-11-18T23:22:10.198;599616073980285824;10014.055;-157
2025-11-18T23:22:10.205;599616073987964544;10021.733;-144
2025-11-18T23:22:10.213;599616073995643136;10029.412;-122
2025-11-18T23:22:10.221;599616074003321856;10037.09;-139
2025-11-18T23:22:10.228;599616074011000576;10044.77;-124
2025-11-18T23:22:10.236;599616074018679296;10052.448;-184
2025-11-18T23:22:10.244;599616074026357888;10060.126;-294
2025-11-18T23:22:10.251;599616074034036608;10067.806;-287
2025-11-18T23:22:10.259;599616074041715328;10075.484;-229
2025-11-18T23:22:10.267;599616074049394004;10083.163;-209
2025-11-18T23:22:10.274;599616074057072768;10090.842;-247
2025-11-18T23:22:10.282;599616074064751488;10098.5205;-364
2025-11-18T23:22:10.290;599616074072430208;10106.199;-452
2025-11-18T23:22:10.297;599616074080108800;10113.878;-447
2025-11-18T23:22:10.305;599616074087787520;10121.556;-442
2025-11-18T23:22:10.313;599616074095466240;10129.235;-504
2025-11-18T23:22:10.320;599616074103144960;10136.914;-577
2025-11-18T23:22:10.328;599616074110823552;10144.592;-652
2025-11-18T23:22:10.336;599616074118502272;10152.2705;-806
2025-11-18T23:22:10.343;599616074126180992;10159.95;-1066
2025-11-18T23:22:10.351;599616074133859712;10167.629;-1349
2025-11-18T23:22:10.359;599616074141538432;10175.308;-2051
2025-11-18T23:22:10.366;599616074149217024;10182.985;-2895
2025-11-18T23:22:10.374;599616074156895744;10190.665;-1956
2025-11-18T23:22:10.382;599616074164574464;10198.344;-217
2025-11-18T23:22:10.390;599616074172253184;10206.021;-384
2025-11-18T23:22:10.397;599616074179931776;10213.7;-1041
2025-11-18T23:22:10.405;599616074187610496;10221.38;-547
2025-11-18T23:22:10.413;599616074195289216;10229.058;-214
2025-11-18T23:22:10.420;599616074202967936;10236.736;-647
2025-11-18T23:22:10.428;599616074210646528;10244.415;-949
2025-11-18T23:22:10.436;599616074218325248;10252.095;-851
2025-11-18T23:22:10.443;599616074226003968;10259.772;-979
2025-11-18T23:22:10.451;599616074233682688;10267.451;-1189
2025-11-18T23:22:10.459;599616074241361408;10275.13;-1016
2025-11-18T23:22:10.466;599616074249040000;10282.81;-1066
2025-11-18T23:22:10.474;599616074256718720;10290.487;-1261
2025-11-18T23:22:10.482;599616074264397440;10298.166;-951
2025-11-18T23:22:10.489;599616074272076160;10305.846;-819
2025-11-18T23:22:10.497;599616074279754752;10313.523;-1041
2025-11-18T23:22:10.505;599616074287433472;10321.202;-1064
2025-11-18T23:22:10.512;599616074295112192;10328.881;-1054
2025-11-18T23:22:10.520;599616074302790912;10336.561;-951
2025-11-18T23:22:10.528;599616074310469632;10344.238;-662
2025-11-18T23:22:10.535;599616074318148224;10351.917;-577
2025-11-18T23:22:10.543;599616074325826944;10359.596;-659
2025-11-18T23:22:10.551;599616074333505664;10367.275;-519
2025-11-18T23:22:10.558;599616074341184384;10374.953;-372
2025-11-18T23:22:10.566;599616074348862976;10382.632;-459
2025-11-18T23:22:10.574;599616074356541696;10390.311;-507
2025-11-18T23:22:10.581;599616074364220416;10397.989;-437
2025-11-18T23:22:10.589;599616074371899136;10405.668;-322
2025-11-18T23:22:10.597;599616074379577856;10413.347;-262
2025-11-18T23:22:10.605;599616074387256448;10421.024;-407
2025-11-18T23:22:10.612;599616074394935168;10428.704;-564
2025-11-18T23:22:10.620;599616074402613888;10436.383;-594
2025-11-18T23:22:10.628;599616074410292608;10444.062;-627
2025-11-18T23:22:10.635;599616074417971200;10451.739;-557
2025-11-18T23:22:10.643;599616074425649920;10459.419;-314
2025-11-18T23:22:10.651;599616074433328640;10467.098;-207
2025-11-18T23:22:10.658;599616074441007360;10474.776;-492
2025-11-18T23:22:10.666;599616074448685952;10482.454;-771
2025-11-18T23:22:10.674;599616074456364672;10490.134;-727
2025-11-18T23:22:10.681;599616074464043392;10497.8125;-806
2025-11-18T23:22:10.689;599616074471722112;10505.49;-964
2025-11-18T23:22:10.697;599616074479400832;10513.169;-869
2025-11-18T23:22:10.704;599616074487079424;10520.849;-834
2025-11-18T23:22:10.712;599616074494758144;10528.527;-854
2025-11-18T23:22:10.720;599616074502436864;10536.205;-799
2025-11-18T23:22:10.727;599616074510115584;10543.885;-881
2025-11-18T23:22:10.735;599616074517794176;10551.563;-1129
2025-11-18T23:22:10.743;599616074525472896;10559.242;-1226
2025-11-18T23:22:10.750;599616074533151616;10566.92;-984
2025-11-18T23:22:10.758;599616074540830336;10574.6;-794
2025-11-18T23:22:10.766;599616074548509056;10582.278;-874
2025-11-18T23:22:10.773;599616074556187648;10589.956;-936
2025-11-18T23:22:10.781;599616074563866368;10597.635;-826
2025-11-18T23:22:10.789;599616074571545088;10605.314;-677
2025-11-18T23:22:10.796;599616074579223808;10612.993;-627
2025-11-18T23:22:10.804;599616074586902400;10620.671;-637
2025-11-18T23:22:10.812;599616074594581120;10628.35;-662
2025-11-18T23:22:10.820;599616074602259840;10636.029;-672
2025-11-18T23:22:10.827;599616074609938457;10643.707;-619
2025-11-18T23:22:10.835;599616074617617152;10651.386;-629
2025-11-18T23:22:10.843;599616074625295872;10659.064;-709
2025-11-18T23:22:10.850;599616074632974592;10666.744;-679
2025-11-18T23:22:10.858;599616074640653184;10674.422;-604
2025-11-18T23:22:10.866;599616074648331904;10682.101;-639
2025-11-18T23:22:10.873;599616074656010624;10689.779;-579
2025-11-18T23:22:10.881;599616074663689344;10697.458;-357
2025-11-18T23:22:10.889;599616074671367936;10705.137;-322
2025-11-18T23:22:10.896;599616074679046656;10712.815;-482
2025-11-18T23:22:10.904;599616074686725376;10720.494;-487
2025-11-18T23:22:10.912;599616074694404096;10728.173;-397
2025-11-18T23:22:10.919;599616074702082816;10735.852;-332
2025-11-18T23:22:10.927;599616074709761408;10743.53;-204
2025-11-18T23:22:10.935;599616074717440128;10751.209;-262
2025-11-18T23:22:10.942;599616074725118848;10758.888;-467
2025-11-18T23:22:10.950;599616074732797568;10766.566;-419
2025-11-18T23:22:10.958;599616074740476160;10774.245;-222
2025-11-18T23:22:10.965;599616074748154880;10781.923;-104
2025-11-18T23:22:10.973;599616074755833600;10789.603;-59
2025-11-18T23:22:10.981;599616074763512320;10797.281;-149
2025-11-18T23:22:10.988;599616074771190912;10804.959;-312
2025-11-18T23:22:10.996;599616074778869632;10812.639;-319
2025-11-18T23:22:11.004;599616074786548352;10820.317;-244
2025-11-18T23:22:11.011;599616074794227072;10827.996;-227
2025-11-18T23:22:11.019;599616074801905792;10835.675;-152
2025-11-18T23:22:11.027;599616074809584384;10843.354;-97
2025-11-18T23:22:11.035;599616074817263104;10851.032;-182
2025-11-18T23:22:11.042;599616074824941824;10858.711;-182
2025-11-18T23:22:11.050;599616074832620544;10866.389;-19
2025-11-18T23:22:11.058;599616074840299136;10874.068;34
2025-11-18T23:22:11.065;599616074847977856;10881.747;-77
2025-11-18T23:22:11.073;599616074855656576;10889.425;-217
2025-11-18T23:22:11.081;599616074863335296;10897.104;-307
2025-11-18T23:22:11.088;599616074871014016;10904.783;-244
2025-11-18T23:22:11.096;599616074878692608;10912.462;-124
2025-11-18T23:22:11.104;599616074886371328;10920.14;-144
2025-11-18T23:22:11.111;599616074894050048;10927.818;-169
2025-11-18T23:22:11.119;599616074901728768;10935.498;-174
2025-11-18T23:22:11.127;599616074909407360;10943.177;-247
2025-11-18T23:22:11.134;599616074917086080;10950.8545;-184
2025-11-18T23:22:11.142;599616074924764800;10958.533;0
2025-11-18T23:22:11.150;599616074932443520;10966.213;102
2025-11-18T23:22:11.157;599616074940122240;10973.891;144
2025-11-18T23:22:11.165;599616074947800832;10981.569;159
2025-11-18T23:22:11.173;599616074955479552;10989.248;87
2025-11-18T23:22:11.180;599616074963158272;10996.928;-22
2025-11-18T23:22:11.188;599616074970836992;11004.605;-29
2025-11-18T23:22:11.196;599616074978515584;11012.284;-4
2025-11-18T23:22:11.203;599616074986194304;11019.964;-44
2025-11-18T23:22:11.211;599616074993873024;11027.643;-144
2025-11-18T23:22:11.219;599616075001551744;11035.32;-297
2025-11-18T23:22:11.226;599616075009230336;11042.999;-324
2025-11-18T23:22:11.234;599616075016909056;11050.679;-212
2025-11-18T23:22:11.242;599616075024587776;11058.356;-197
2025-11-18T23:22:11.250;599616075032266496;11066.035;-182
2025-11-18T23:22:11.257;599616075039945216;11073.714;-167
2025-11-18T23:22:11.265;599616075047623808;11081.393;-252
2025-11-18T23:22:11.273;599616075055302528;11089.071;-244
2025-11-18T23:22:11.280;599616075062981248;11096.75;-212
2025-11-18T23:22:11.288;599616075070659968;11104.429;-224
2025-11-18T23:22:11.296;599616075078338560;11112.107;-199
2025-11-18T23:22:11.303;599616075086017280;11119.786;-177
2025-11-18T23:22:11.311;599616075093696000;11127.465;-234
2025-11-18T23:22:11.319;599616075101374720;11135.144;-289
2025-11-18T23:22:11.326;599616075109053440;11142.822;-119
2025-11-18T23:22:11.334;599616075116732032;11150.501;54
2025-11-18T23:22:11.342;599616075124410752;11158.18;-64
2025-11-18T23:22:11.349;599616075132089472;11165.857;-107
2025-11-18T23:22:11.357;599616075139768192;11173.537;49
2025-11-18T23:22:11.365;599616075147446784;11181.216;12
2025-11-18T23:22:11.372;599616075155125504;11188.895;-44
2025-11-18T23:22:11.380;599616075162804224;11196.572;57
2025-11-18T23:22:11.388;599616075170482908;11204.252;17
2025-11-18T23:22:11.395;599616075178161792;11211.931;-22
2025-11-18T23:22:11.403;599616075185840640;11219.609;134
2025-11-18T23:22:11.411;599616075193519616;11227.289;167
2025-11-18T23:22:11.418;599616075201198464;11234.968;67
2025-11-18T23:22:11.426;599616075208877440;11242.646;104
2025-11-18T23:22:11.434;599616075216556288;11250.325;159
2025-11-18T23:22:11.442;599616075224235136;11258.004;19
2025-11-18T23:22:11.449;599616075231914112;11265.684;-157
2025-11-18T23:22:11.457;599616075239592960;11273.361;-187
2025-11-18T23:22:11.465;599616075247271936;11281.04;-244
2025-11-18T23:22:11.472;599616075254950784;11288.72;-357
2025-11-18T23:22:11.480;599616075262629632;11296.398;-312
2025-11-18T23:22:11.488;599616075270308608;11304.077;-282
2025-11-18T23:22:11.495;599616075277987456;11311.756;-359
2025-11-18T23:22:11.503;599616075285666432;11319.436;-284
2025-11-18T23:22:11.511;599616075293345280;11327.114;-194
2025-11-18T23:22:11.518;599616075301024256;11334.793;-359
2025-11-18T23:22:11.526;599616075308703104;11342.473;-409
2025-11-18T23:22:11.534;599616075316381952;11350.151;-172
2025-11-18T23:22:11.541;599616075324060928;11357.83;-122
2025-11-18T23:22:11.549;599616075331739776;11365.509;-247
2025-11-18T23:22:11.557;599616075339418752;11373.1875;-267
2025-11-18T23:22:11.564;599616075347097600;11380.866;-329
2025-11-18T23:22:11.572;599616075354776448;11388.545;-432
2025-11-18T23:22:11.580;599616075362455424;11396.224;-357
2025-11-18T23:22:11.587;599616075370134272;11403.903;-267
2025-11-18T23:22:11.595;599616075377813248;11411.582;-329
2025-11-18T23:22:11.603;599616075385492096;11419.261;-319
2025-11-18T23:22:11.610;599616075393170944;11426.939;-272
2025-11-18T23:22:11.618;599616075400849920;11434.619;-284
2025-11-18T23:22:11.626;599616075408528768;11442.298;-224
2025-11-18T23:22:11.633;599616075416207744;11449.977;-242
2025-11-18T23:22:11.641;599616075423886592;11457.656;-347
2025-11-18T23:22:11.649;599616075431565440;11465.335;-242
2025-11-18T23:22:11.657;599616075439244416;11473.013;-122
2025-11-18T23:22:11.664;599616075446923264;11480.691;-262
2025-11-18T23:22:11.672;599616075454602240;11488.371;-342
2025-11-18T23:22:11.680;599616075462281088;11496.05;-237
2025-11-18T23:22:11.687;599616075469959936;11503.729;-252
2025-11-18T23:22:11.695;599616075477638912;11511.407;-337
2025-11-18T23:22:11.703;599616075485317760;11519.087;-397
2025-11-18T23:22:11.710;599616075492996736;11526.766;-459
2025-11-18T23:22:11.718;599616075500675584;11534.444;-424
2025-11-18T23:22:11.726;599616075508354560;11542.123;-407
2025-11-18T23:22:11.733;599616075516033408;11549.803;-462
2025-11-18T23:22:11.741;599616075523712256;11557.481;-459
2025-11-18T23:22:11.749;599616075531391232;11565.16;-474
2025-11-18T23:22:11.756;599616075539070080;11572.839;-362
2025-11-18T23:22:11.764;599616075546749056;11580.519;-184
2025-11-18T23:22:11.772;599616075554427904;11588.196;-287
2025-11-18T23:22:11.779;599616075562106752;11595.875;-502
2025-11-18T23:22:11.787;599616075569785728;11603.555;-594
2025-11-18T23:22:11.795;599616075577464576;11611.233;-627
2025-11-18T23:22:11.802;599616075585143552;11618.912;-569
2025-11-18T23:22:11.810;599616075592822400;11626.591;-404
2025-11-18T23:22:11.818;599616075600501248;11634.2705;-387
2025-11-18T23:22:11.825;599616075608180224;11641.949;-499
2025-11-18T23:22:11.833;599616075615859072;11649.628;-424
2025-11-18T23:22:11.841;599616075623538048;11657.308;-444
2025-11-18T23:22:11.848;599616075631216896;11664.986;-669
2025-11-18T23:22:11.856;599616075638895744;11672.664;-729
2025-11-18T23:22:11.864;599616075646574720;11680.344;-697
2025-11-18T23:22:11.872;599616075654253568;11688.022;-694
2025-11-18T23:22:11.879;599616075661932544;11695.701;-844
2025-11-18T23:22:11.887;599616075669611392;11703.38;-1346
2025-11-18T23:22:11.895;599616075677290240;11711.059;-1818
2025-11-18T23:22:11.902;599616075684969216;11718.738;-2268
2025-11-18T23:22:11.910;599616075692648064;11726.417;-1746
2025-11-18T23:22:11.918;599616075700327040;11734.096;-57
2025-11-18T23:22:11.925;599616075708005888;11741.774;-42
2025-11-18T23:22:11.933;599616075715684864;11749.454;-874
2025-11-18T23:22:11.941;599616075723363712;11757.133;-404
2025-11-18T23:22:11.948;599616075731042619;11764.812;-157
2025-11-18T23:22:11.956;599616075738721024;11772.489;-369
2025-11-18T23:22:11.964;599616075746399488;11780.169;-42
2025-11-18T23:22:11.971;599616075754077952;11787.847;57
2025-11-18T23:22:11.979;599616075761756416;11795.525;-299
2025-11-18T23:22:11.987;599616075769435008;11803.203;-127
2025-11-18T23:22:11.994;599616075777113472;11810.883;299
2025-11-18T23:22:12.002;599616075784791936;11818.561;239
2025-11-18T23:22:12.010;599616075792470400;11826.239;112
2025-11-18T23:22:12.017;599616075800148864;11833.917;244
2025-11-18T23:22:12.025;599616075807827328;11841.597;237
2025-11-18T23:22:12.033;599616075815505792;11849.274;-14
2025-11-18T23:22:12.040;599616075823184384;11856.953;-232
2025-11-18T23:22:12.048;599616075830862848;11864.631;-274
2025-11-18T23:22:12.056;599616075838541312;11872.311;-214
2025-11-18T23:22:12.063;599616075846219776;11879.988;-94
2025-11-18T23:22:12.071;599616075853898240;11887.667;44
2025-11-18T23:22:12.079;599616075861576704;11895.345;47
2025-11-18T23:22:12.087;599616075869255168;11903.024;-92
2025-11-18T23:22:12.094;599616075876933760;11910.703;-204
2025-11-18T23:22:12.102;599616075884612224;11918.381;-222
2025-11-18T23:22:12.110;599616075892290688;11926.059;-162
2025-11-18T23:22:12.117;599616075899969152;11933.738;-62
2025-11-18T23:22:12.125;599616075907647616;11941.417;-12
2025-11-18T23:22:12.133;599616075915326080;11949.095;72
2025-11-18T23:22:12.140;599616075923004544;11956.772;254
2025-11-18T23:22:12.148;599616075930683136;11964.452;107
2025-11-18T23:22:12.156;599616075938361600;11972.131;-382
2025-11-18T23:22:12.163;599616075946040064;11979.809;-584
2025-11-18T23:22:12.171;599616075953718528;11987.487;-467
2025-11-18T23:22:12.179;599616075961396992;11995.166;-459
2025-11-18T23:22:12.186;599616075969075456;12002.845;-589
2025-11-18T23:22:12.194;599616075976753920;12010.522;-544
2025-11-18T23:22:12.202;599616075984432512;12018.201;-622
2025-11-18T23:22:12.209;599616075992110976;12025.88;-984
2025-11-18T23:22:12.217;599616075999789440;12033.559;-1076
2025-11-18T23:22:12.225;599616076007467904;12041.236;-974
2025-11-18T23:22:12.232;599616076015146368;12048.915;-984
2025-11-18T23:22:12.240;599616076022824832;12056.594;-836
2025-11-18T23:22:12.248;599616076030503296;12064.272;-544
2025-11-18T23:22:12.255;599616076038181888;12071.95;-414
2025-11-18T23:22:12.263;599616076045860352;12079.629;-412
2025-11-18T23:22:12.271;599616076053538816;12087.308;-337
2025-11-18T23:22:12.278;599616076061217280;12094.986;-234
2025-11-18T23:22:12.286;599616076068895744;12102.664;-269
2025-11-18T23:22:12.294;599616076076574208;12110.343;-349
2025-11-18T23:22:12.302;599616076084252672;12118.021;-292
2025-11-18T23:22:12.309;599616076091931136;12125.7;-112
2025-11-18T23:22:12.317;599616076099609728;12133.378;72
2025-11-18T23:22:12.325;599616076107288192;12141.057;99
2025-11-18T23:22:12.332;599616076114966656;12148.736;-24
2025-11-18T23:22:12.340;599616076122645120;12156.414;-89
2025-11-18T23:22:12.348;599616076130323584;12164.092;-4
2025-11-18T23:22:12.355;599616076138002048;12171.7705;47
2025-11-18T23:22:12.363;599616076145680512;12179.45;7
2025-11-18T23:22:12.371;599616076153359104;12187.128;104
2025-11-18T23:22:12.378;599616076161037568;12194.807;257
2025-11-18T23:22:12.386;599616076168716032;12202.484;182
2025-11-18T23:22:12.394;599616076176394496;12210.164;69
2025-11-18T23:22:12.401;599616076184072960;12217.842;112
2025-11-18T23:22:12.409;599616076191751424;12225.5205;109
2025-11-18T23:22:12.417;599616076199429888;12233.198;12
2025-11-18T23:22:12.424;599616076207108480;12240.878;-19
2025-11-18T23:22:12.432;599616076214786944;12248.556;92
2025-11-18T23:22:12.440;599616076222465408;12256.234;127
2025-11-18T23:22:12.447;599616076230143872;12263.912;-49
2025-11-18T23:22:12.455;599616076237822336;12271.592;-207
2025-11-18T23:22:12.463;599616076245500800;12279.27;-204
2025-11-18T23:22:12.470;599616076253179264;12286.948;-164
2025-11-18T23:22:12.478;599616076260857856;12294.626;-322
2025-11-18T23:22:12.486;599616076268536320;12302.306;-519
2025-11-18T23:22:12.493;599616076276214784;12309.983;-429
2025-11-18T23:22:12.501;599616076283893248;12317.662;-212
2025-11-18T23:22:12.509;599616076291571810;12325.34;-147
2025-11-18T23:22:12.517;599616076299250560;12333.02;-209
2025-11-18T23:22:12.524;599616076306929280;12340.698;-264
2025-11-18T23:22:12.532;599616076314608000;12348.377;-289
2025-11-18T23:22:12.540;599616076322286592;12356.055;-229
2025-11-18T23:22:12.547;599616076329965312;12363.734;-102
2025-11-18T23:22:12.555;599616076337644032;12371.413;-124
2025-11-18T23:22:12.563;599616076345322752;12379.092;-277
2025-11-18T23:22:12.570;599616076353001344;12386.77;-339
2025-11-18T23:22:12.578;599616076360680064;12394.449;-349
2025-11-18T23:22:12.586;599616076368358784;12402.128;-342
2025-11-18T23:22:12.593;599616076376037504;12409.807;-162
2025-11-18T23:22:12.601;599616076383716224;12417.484;0
2025-11-18T23:22:12.609;599616076391394816;12425.164;-124
2025-11-18T23:22:12.616;599616076399073536;12432.843;-304
2025-11-18T23:22:12.624;599616076406752256;12440.5205;-412
2025-11-18T23:22:12.632;599616076414430976;12448.199;-544
2025-11-18T23:22:12.639;599616076422109568;12455.879;-579
2025-11-18T23:22:12.647;599616076429788288;12463.557;-512
2025-11-18T23:22:12.655;599616076437467008;12471.235;-454
2025-11-18T23:22:12.662;599616076445145728;12478.915;-404
2025-11-18T23:22:12.670;599616076452824320;12486.594;-422
2025-11-18T23:22:12.678;599616076460503040;12494.271;-492
2025-11-18T23:22:12.685;599616076468181760;12501.95;-404
2025-11-18T23:22:12.693;599616076475860480;12509.63;-182
2025-11-18T23:22:12.701;599616076483539200;12517.309;-122
2025-11-18T23:22:12.708;599616076491217792;12524.986;-177
2025-11-18T23:22:12.716;599616076498896512;12532.665;-124
2025-11-18T23:22:12.724;599616076506575232;12540.345;-132
2025-11-18T23:22:12.732;599616076514253952;12548.022;-234
2025-11-18T23:22:12.739;599616076521932544;12555.701;-214
2025-11-18T23:22:12.747;599616076529611264;12563.38;-164
2025-11-18T23:22:12.755;599616076537289984;12571.06;-74
2025-11-18T23:22:12.762;599616076544968704;12578.737;79
2025-11-18T23:22:12.770;599616076552647424;12586.416;74
2025-11-18T23:22:12.778;599616076560326016;12594.095;77
2025-11-18T23:22:12.785;599616076568004736;12601.774;239
2025-11-18T23:22:12.793;599616076575683456;12609.452;269
2025-11-18T23:22:12.801;599616076583362176;12617.131;192
2025-11-18T23:22:12.808;599616076591040768;12624.81;264
2025-11-18T23:22:12.816;599616076598719488;12632.488;327
2025-11-18T23:22:12.824;599616076606398208;12640.167;222
2025-11-18T23:22:12.831;599616076614076928;12647.846;164
2025-11-18T23:22:12.839;599616076621755648;12655.524;242
2025-11-18T23:22:12.847;599616076629434240;12663.203;282
2025-11-18T23:22:12.854;599616076637112960;12670.882;164
2025-11-18T23:22:12.862;599616076644791680;12678.561;-2
2025-11-18T23:22:12.870;599616076652470400;12686.239;-44
2025-11-18T23:22:12.877;599616076660148992;12693.918;-69
2025-11-18T23:22:12.885;599616076667827712;12701.597;-102
2025-11-18T23:22:12.893;599616076675506432;12709.275;9
2025-11-18T23:22:12.900;599616076683185152;12716.953;-34
2025-11-18T23:22:12.908;599616076690863744;12724.633;-409
2025-11-18T23:22:12.916;599616076698542464;12732.312;-519
2025-11-18T23:22:12.923;599616076706221184;12739.989;-192
2025-11-18T23:22:12.931;599616076713899904;12747.669;-34
2025-11-18T23:22:12.939;599616076721578624;12755.348;-187
2025-11-18T23:22:12.947;599616076729257216;12763.026;-207
2025-11-18T23:22:12.954;599616076736935936;12770.704;-232
2025-11-18T23:22:12.962;599616076744614656;12778.384;-399
2025-11-18T23:22:12.970;599616076752293376;12786.0625;-279
2025-11-18T23:22:12.977;599616076759971968;12793.741;-72
2025-11-18T23:22:12.985;599616076767650688;12801.419;-74
2025-11-18T23:22:12.993;599616076775329408;12809.099;-74
2025-11-18T23:22:13.000;599616076783008128;12816.777;-102
2025-11-18T23:22:13.008;599616076790686848;12824.455;-174
2025-11-18T23:22:13.016;599616076798365440;12832.134;-142
2025-11-18T23:22:13.023;599616076806044160;12839.813;-124
2025-11-18T23:22:13.031;599616076813722880;12847.492;-162
2025-11-18T23:22:13.039;599616076821401600;12855.17;-97
2025-11-18T23:22:13.046;599616076829080192;12862.849;-29
2025-11-18T23:22:13.054;599616076836758912;12870.528;-59
2025-11-18T23:22:13.062;599616076844437632;12878.207;-82
2025-11-18T23:22:13.069;599616076852116261;12885.885;-112
2025-11-18T23:22:13.077;599616076859794944;12893.563;-204
2025-11-18T23:22:13.085;599616076867473664;12901.243;-217
2025-11-18T23:22:13.092;599616076875152384;12908.921;-49
2025-11-18T23:22:13.100;599616076882830976;12916.6;132
2025-11-18T23:22:13.108;599616076890509696;12924.278;204
2025-11-18T23:22:13.115;599616076898188416;12931.957;184
2025-11-18T23:22:13.123;599616076905867136;12939.636;87
2025-11-18T23:22:13.131;599616076913545728;12947.314;-7
2025-11-18T23:22:13.138;599616076921224448;12954.994;-64
2025-11-18T23:22:13.146;599616076928903168;12962.672;-92
2025-11-18T23:22:13.154;599616076936581888;12970.351;-74
2025-11-18T23:22:13.162;599616076944260608;12978.029;-22
2025-11-18T23:22:13.169;599616076951939200;12985.709;0
2025-11-18T23:22:13.177;599616076959617920;12993.387;-74
2025-11-18T23:22:13.185;599616076967296640;13001.065;-87
2025-11-18T23:22:13.192;599616076974975360;13008.744;-87
2025-11-18T23:22:13.200;599616076982653952;13016.423;-262
2025-11-18T23:22:13.208;599616076990332672;13024.102;-314
2025-11-18T23:22:13.215;599616076998011392;13031.78;-222
2025-11-18T23:22:13.223;599616077005690112;13039.459;-304
2025-11-18T23:22:13.231;599616077013368704;13047.138;-447
2025-11-18T23:22:13.238;599616077021047424;13054.816;-389
2025-11-18T23:22:13.246;599616077028726144;13062.495;-174
2025-11-18T23:22:13.254;599616077036404864;13070.174;-42
2025-11-18T23:22:13.261;599616077044083584;13077.853;-107
2025-11-18T23:22:13.269;599616077051762176;13085.531;-152
2025-11-18T23:22:13.277;599616077059440896;13093.21;-72
2025-11-18T23:22:13.284;599616077067119616;13100.888;-137
2025-11-18T23:22:13.292;599616077074798336;13108.567;-294
2025-11-18T23:22:13.300;599616077082476928;13116.246;-297
2025-11-18T23:22:13.307;599616077090155648;13123.924;-242
2025-11-18T23:22:13.315;599616077097834368;13131.603;-259
2025-11-18T23:22:13.323;599616077105513088;13139.282;-239
2025-11-18T23:22:13.330;599616077113191808;13146.961;-77
2025-11-18T23:22:13.338;599616077120870400;13154.639;57
2025-11-18T23:22:13.346;599616077128549120;13162.317;-87
2025-11-18T23:22:13.353;599616077136227840;13169.997;-342
2025-11-18T23:22:13.361;599616077143906560;13177.676;-377
2025-11-18T23:22:13.369;599616077151585152;13185.354;-314
2025-11-18T23:22:13.377;599616077159263872;13193.032;-362
2025-11-18T23:22:13.384;599616077166942592;13200.712;-399
2025-11-18T23:22:13.392;599616077174621312;13208.39;-307
2025-11-18T23:22:13.400;599616077182300032;13216.068;-294
2025-11-18T23:22:13.407;599616077189978624;13223.748;-382
2025-11-18T23:22:13.415;599616077197657344;13231.427;-334
2025-11-18T23:22:13.423;599616077205336064;13239.1045;-257
2025-11-18T23:22:13.430;599616077213014784;13246.783;-289
2025-11-18T23:22:13.438;599616077220693376;13254.463;-302
2025-11-18T23:22:13.446;599616077228372096;13262.142;-282
2025-11-18T23:22:13.453;599616077236050816;13269.819;-307
2025-11-18T23:22:13.461;599616077243729536;13277.498;-312
2025-11-18T23:22:13.469;599616077251408128;13285.178;-314
2025-11-18T23:22:13.476;599616077259086848;13292.855;-294
2025-11-18T23:22:13.484;599616077266765568;13300.534;-242
2025-11-18T23:22:13.492;599616077274444288;13308.213;-287
2025-11-18T23:22:13.499;599616077282123008;13315.893;-359
2025-11-18T23:22:13.507;599616077289801600;13323.57;-387
2025-11-18T23:22:13.515;599616077297480320;13331.249;-422
2025-11-18T23:22:13.522;599616077305159040;13338.928;-399
2025-11-18T23:22:13.530;599616077312837760;13346.607;-247
2025-11-18T23:22:13.538;599616077320516352;13354.285;-104
2025-11-18T23:22:13.545;599616077328195072;13361.964;-172
2025-11-18T23:22:13.553;599616077335873792;13369.643;-409
2025-11-18T23:22:13.561;599616077343552512;13377.321;-484
2025-11-18T23:22:13.569;599616077351231232;13385.0;-237
2025-11-18T23:22:13.576;599616077358909824;13392.679;-34
2025-11-18T23:22:13.584;599616077366588544;13400.356;-142
2025-11-18T23:22:13.592;599616077374267264;13408.036;-234
2025-11-18T23:22:13.599;599616077381945984;13415.715;-117
2025-11-18T23:22:13.607;599616077389624576;13423.394;-77
2025-11-18T23:22:13.615;599616077397303296;13431.071;-264
2025-11-18T23:22:13.622;599616077404982016;13438.751;-357
2025-11-18T23:22:13.630;599616077412660712;13446.43;-252
2025-11-18T23:22:13.638;599616077420339456;13454.108;-217
2025-11-18T23:22:13.645;599616077428018176;13461.787;-259
2025-11-18T23:22:13.653;599616077435696896;13469.466;-272
2025-11-18T23:22:13.661;599616077443375488;13477.145;-262
2025-11-18T23:22:13.668;599616077451054208;13484.822;-297
2025-11-18T23:22:13.676;599616077458732928;13492.502;-332
2025-11-18T23:22:13.684;599616077466411648;13500.181;-237
2025-11-18T23:22:13.691;599616077474090240;13507.859;-112
2025-11-18T23:22:13.699;599616077481768960;13515.537;-69
2025-11-18T23:22:13.707;599616077489447680;13523.217;-67
2025-11-18T23:22:13.714;599616077497126400;13530.8955;-137
2025-11-18T23:22:13.722;599616077504805120;13538.574;-172
2025-11-18T23:22:13.730;599616077512483712;13546.252;-49
2025-11-18T23:22:13.737;599616077520162432;13553.932;32
2025-11-18T23:22:13.745;599616077527841152;13561.61;-69
2025-11-18T23:22:13.753;599616077535519872;13569.288;-169
2025-11-18T23:22:13.760;599616077543198464;13576.967;-174
2025-11-18T23:22:13.768;599616077550877184;13584.646;-274
2025-11-18T23:22:13.776;599616077558555904;13592.325;-359
2025-11-18T23:22:13.784;599616077566234624;13600.003;-284
2025-11-18T23:22:13.791;599616077573913216;13607.682;-289
2025-11-18T23:22:13.799;599616077581591936;13615.361;-327
2025-11-18T23:22:13.807;599616077589270656;13623.04;-227
2025-11-18T23:22:13.814;599616077596949376;13630.718;-187
2025-11-18T23:22:13.822;599616077604628096;13638.396;-254
2025-11-18T23:22:13.830;599616077612306688;13646.076;-274
2025-11-18T23:22:13.837;599616077619985408;13653.754;-279
2025-11-18T23:22:13.845;599616077627664128;13661.433;-267
2025-11-18T23:22:13.853;599616077635342848;13669.111;-182
2025-11-18T23:22:13.860;599616077643021440;13676.79;-177
2025-11-18T23:22:13.868;599616077650700160;13684.469;-294
2025-11-18T23:22:13.876;599616077658378880;13692.147;-387
2025-11-18T23:22:13.883;599616077666057600;13699.827;-402
2025-11-18T23:22:13.891;599616077673736320;13707.506;-399
2025-11-18T23:22:13.899;599616077681414912;13715.184;-352
2025-11-18T23:22:13.906;599616077689093632;13722.862;-212
2025-11-18T23:22:13.914;599616077696772352;13730.542;-102
2025-11-18T23:22:13.922;599616077704451072;13738.22;-124
2025-11-18T23:22:13.929;599616077712129664;13745.898;-189
2025-11-18T23:22:13.937;599616077719808384;13753.577;-192
2025-11-18T23:22:13.945;599616077727487104;13761.256;-189
2025-11-18T23:22:13.952;599616077735165824;13768.935;-209
2025-11-18T23:22:13.960;599616077742844544;13776.613;-202
2025-11-18T23:22:13.968;599616077750523136;13784.292;-189
2025-11-18T23:22:13.975;599616077758201856;13791.971;-202
2025-11-18T23:22:13.983;599616077765880576;13799.649;-192
2025-11-18T23:22:13.991;599616077773559296;13807.328;-127
2025-11-18T23:22:13.999;599616077781237888;13815.007;-77
2025-11-18T23:22:14.006;599616077788916608;13822.686;-189
2025-11-18T23:22:14.014;599616077796595328;13830.364;-432
2025-11-18T23:22:14.022;599616077804274048;13838.043;-467
2025-11-18T23:22:14.029;599616077811952640;13845.721;-244
2025-11-18T23:22:14.037;599616077819631360;13853.4;-127
2025-11-18T23:22:14.045;599616077827310080;13861.079;-182
2025-11-18T23:22:14.052;599616077834988800;13868.758;-144
2025-11-18T23:22:14.060;599616077842667520;13876.436;47
2025-11-18T23:22:14.068;599616077850346112;13884.115;229
2025-11-18T23:22:14.075;599616077858024832;13891.794;229
2025-11-18T23:22:14.083;599616077865703552;13899.473;-4
2025-11-18T23:22:14.091;599616077873382272;13907.15;-222
2025-11-18T23:22:14.098;599616077881060864;13914.83;-139
2025-11-18T23:22:14.106;599616077888739584;13922.509;-9
2025-11-18T23:22:14.114;599616077896418304;13930.187;-127
2025-11-18T23:22:14.121;599616077904097024;13937.866;-222
2025-11-18T23:22:14.129;599616077911775744;13945.545;-129
2025-11-18T23:22:14.137;599616077919454336;13953.223;-19
2025-11-18T23:22:14.144;599616077927133056;13960.901;47
2025-11-18T23:22:14.152;599616077934811776;13968.581;64
2025-11-18T23:22:14.160;599616077942490496;13976.26;17
2025-11-18T23:22:14.167;599616077950169088;13983.9375;22
2025-11-18T23:22:14.175;599616077957847808;13991.616;107
2025-11-18T23:22:14.183;599616077965526528;13999.296;92
2025-11-18T23:22:14.190;599616077973205165;14006.975;-7
2025-11-18T23:22:14.198;599616077980883840;14014.652;29
2025-11-18T23:22:14.206;599616077988562560;14022.331;212
2025-11-18T23:22:14.214;599616077996241280;14030.011;264
2025-11-18T23:22:14.221;599616078003919872;14037.688;172
2025-11-18T23:22:14.229;599616078011598592;14045.367;209
2025-11-18T23:22:14.237;599616078019277312;14053.046;362
2025-11-18T23:22:14.244;599616078026956032;14060.726;367
2025-11-18T23:22:14.252;599616078034634624;14068.403;254
2025-11-18T23:22:14.260;599616078042313344;14076.082;244
2025-11-18T23:22:14.267;599616078049992064;14083.761;252
2025-11-18T23:22:14.275;599616078057670784;14091.44;84
2025-11-18T23:22:14.283;599616078065349504;14099.118;-7
2025-11-18T23:22:14.290;599616078073028096;14106.797;167
2025-11-18T23:22:14.298;599616078080706816;14114.476;277
2025-11-18T23:22:14.306;599616078088385536;14122.154;152
2025-11-18T23:22:14.313;599616078096064256;14129.833;79
2025-11-18T23:22:14.321;599616078103742848;14137.512;159
2025-11-18T23:22:14.329;599616078111421568;14145.189;122
2025-11-18T23:22:14.336;599616078119100288;14152.869;39
2025-11-18T23:22:14.344;599616078126779008;14160.548;59
2025-11-18T23:22:14.352;599616078134457600;14168.227;39
2025-11-18T23:22:14.359;599616078142136320;14175.904;0
2025-11-18T23:22:14.367;599616078149815040;14183.584;59
2025-11-18T23:22:14.375;599616078157493760;14191.263;134
2025-11-18T23:22:14.382;599616078165172480;14198.941;162
2025-11-18T23:22:14.390;599616078172851072;14206.62;159
2025-11-18T23:22:14.398;599616078180529792;14214.299;102
2025-11-18T23:22:14.405;599616078188208512;14221.978;87
2025-11-18T23:22:14.413;599616078195887232;14229.655;187
2025-11-18T23:22:14.421;599616078203565824;14237.335;259
2025-11-18T23:22:14.429;599616078211244544;14245.014;192
2025-11-18T23:22:14.436;599616078218923264;14252.692;89
2025-11-18T23:22:14.444;599616078226601984;14260.37;124
2025-11-18T23:22:14.452;599616078234280704;14268.05;167
2025-11-18T23:22:14.459;599616078241959296;14275.729;72
2025-11-18T23:22:14.467;599616078249638016;14283.407;137
2025-11-18T23:22:14.475;599616078257316736;14291.085;352
2025-11-18T23:22:14.482;599616078264995456;14298.765;317
2025-11-18T23:22:14.490;599616078272674048;14306.443;194
2025-11-18T23:22:14.498;599616078280352768;14314.121;234
2025-11-18T23:22:14.505;599616078288031488;14321.8;229
2025-11-18T23:22:14.513;599616078295710208;14329.4795;197
2025-11-18T23:22:14.521;599616078303388928;14337.158;172
2025-11-18T23:22:14.528;599616078311067520;14344.836;54
2025-11-18T23:22:14.536;599616078318746240;14352.515;7
2025-11-18T23:22:14.544;599616078326424960;14360.194;7
2025-11-18T23:22:14.551;599616078334103680;14367.873;-107
2025-11-18T23:22:14.559;599616078341782272;14375.551;-249
2025-11-18T23:22:14.567;599616078349460992;14383.2295;-254
2025-11-18T23:22:14.574;599616078357139712;14390.909;-109
2025-11-18T23:22:14.582;599616078364818432;14398.587;-42
2025-11-18T23:22:14.590;599616078372497024;14406.266;-197
2025-11-18T23:22:14.597;599616078380175744;14413.945;-344
2025-11-18T23:22:14.605;599616078387854464;14421.623;-257
2025-11-18T23:22:14.613;599616078395533184;14429.302;-57
2025-11-18T23:22:14.620;599616078403211904;14436.98;-27
2025-11-18T23:22:14.628;599616078410890496;14444.66;-44
2025-11-18T23:22:14.636;599616078418569216;14452.338;74
2025-11-18T23:22:14.644;599616078426247936;14460.017;137
2025-11-18T23:22:14.651;599616078433926656;14467.695;134
2025-11-18T23:22:14.659;599616078441605248;14475.375;174
2025-11-18T23:22:14.667;599616078449283968;14483.053;79
2025-11-18T23:22:14.674;599616078456962688;14490.731;-294
2025-11-18T23:22:14.682;599616078464641408;14498.41;-579
2025-11-18T23:22:14.690;599616078472320128;14506.089;-422
2025-11-18T23:22:14.697;599616078479998720;14513.768;-247
2025-11-18T23:22:14.705;599616078487677440;14521.446;-297
2025-11-18T23:22:14.713;599616078495356160;14529.125;-329
2025-11-18T23:22:14.720;599616078503034880;14536.804;-319
2025-11-18T23:22:14.728;599616078510713472;14544.482;-279
2025-11-18T23:22:14.736;599616078518392192;14552.161;-222
2025-11-18T23:22:14.743;599616078526070912;14559.84;-329
2025-11-18T23:22:14.751;599616078533749616;14567.519;-439
2025-11-18T23:22:14.759;599616078541428352;14575.197;-184
2025-11-18T23:22:14.766;599616078549107072;14582.876;239
2025-11-18T23:22:14.774;599616078556785792;14590.554;339
2025-11-18T23:22:14.782;599616078564464384;14598.233;184
2025-11-18T23:22:14.789;599616078572143104;14605.912;42
2025-11-18T23:22:14.797;599616078579821824;14613.591;-124
2025-11-18T23:22:14.805;599616078587500544;14621.269;-244
2025-11-18T23:22:14.812;599616078595179136;14628.948;-224
2025-11-18T23:22:14.820;599616078602857856;14636.627;-182
2025-11-18T23:22:14.828;599616078610536576;14644.306;-187
2025-11-18T23:22:14.835;599616078618215296;14651.983;-214
2025-11-18T23:22:14.843;599616078625894016;14659.663;-214
2025-11-18T23:22:14.851;599616078633572608;14667.342;-137
2025-11-18T23:22:14.859;599616078641251328;14675.02;-47
2025-11-18T23:22:14.866;599616078648930048;14682.699;-162
2025-11-18T23:22:14.874;599616078656608768;14690.378;-444
2025-11-18T23:22:14.882;599616078664287360;14698.056;-552
2025-11-18T23:22:14.889;599616078671966080;14705.734;-437
2025-11-18T23:22:14.897;599616078679644800;14713.414;-412
2025-11-18T23:22:14.905;599616078687323520;14721.093;-514
2025-11-18T23:22:14.912;599616078695002112;14728.7705;-549
2025-11-18T23:22:14.920;599616078702680832;14736.449;-547
2025-11-18T23:22:14.928;599616078710359552;14744.129;-607
2025-11-18T23:22:14.935;599616078718038272;14751.808;-679
2025-11-18T23:22:14.943;599616078725716992;14759.485;-572
2025-11-18T23:22:14.951;599616078733395584;14767.164;-359
2025-11-18T23:22:14.958;599616078741074304;14774.844;-317
2025-11-18T23:22:14.966;599616078748753024;14782.521;-352
2025-11-18T23:22:14.974;599616078756431744;14790.2;-287
2025-11-18T23:22:14.981;599616078764110336;14797.879;-247
2025-11-18T23:22:14.989;599616078771789056;14805.559;-294
2025-11-18T23:22:14.997;599616078779467776;14813.236;-319
2025-11-18T23:22:15.004;599616078787146496;14820.915;-289
2025-11-18T23:22:15.012;599616078794825216;14828.594;-284
2025-11-18T23:22:15.020;599616078802503808;14836.273;-337
2025-11-18T23:22:15.027;599616078810182528;14843.951;-369
2025-11-18T23:22:15.035;599616078817861248;14851.63;-357
2025-11-18T23:22:15.043;599616078825539968;14859.309;-377
2025-11-18T23:22:15.050;599616078833218560;14866.987;-409
2025-11-18T23:22:15.058;599616078840897280;14874.666;-422
2025-11-18T23:22:15.066;599616078848576000;14882.345;-397
2025-11-18T23:22:15.074;599616078856254720;14890.024;-372
2025-11-18T23:22:15.081;599616078863933440;14897.702;-404
2025-11-18T23:22:15.089;599616078871612032;14905.381;-454
2025-11-18T23:22:15.097;599616078879290752;14913.06;-479
2025-11-18T23:22:15.104;599616078886969472;14920.739;-479
2025-11-18T23:22:15.112;599616078894648192;14928.417;-464
2025-11-18T23:22:15.120;599616078902326784;14936.096;-464
2025-11-18T23:22:15.127;599616078910005504;14943.774;-452
2025-11-18T23:22:15.135;599616078917684224;14951.453;-432
2025-11-18T23:22:15.143;599616078925362944;14959.132;-459
2025-11-18T23:22:15.150;599616078933041536;14966.811;-504
2025-11-18T23:22:15.158;599616078940720256;14974.488;-522
2025-11-18T23:22:15.166;599616078948398976;14982.168;-507
2025-11-18T23:22:15.173;599616078956077696;14989.847;-504
2025-11-18T23:22:15.181;599616078963756416;14997.525;-469
2025-11-18T23:22:15.189;599616078971435008;15005.203;-384
2025-11-18T23:22:15.196;599616078979113728;15012.883;-377
2025-11-18T23:22:15.204;599616078986792448;15020.562;-384
2025-11-18T23:22:15.212;599616078994471168;15028.24;-302
2025-11-18T23:22:15.219;599616079002149760;15035.918;-307
2025-11-18T23:22:15.227;599616079009828480;15043.598;-442
2025-11-18T23:22:15.235;599616079017507200;15051.276;-422
2025-11-18T23:22:15.242;599616079025185920;15058.954;-282
2025-11-18T23:22:15.250;599616079032864640;15066.633;-279
2025-11-18T23:22:15.258;599616079040543232;15074.3125;-297
2025-11-18T23:22:15.265;599616079048221952;15081.991;-294
2025-11-18T23:22:15.273;599616079055900672;15089.669;-329
2025-11-18T23:22:15.281;599616079063579392;15097.348;-237
2025-11-18T23:22:15.289;599616079071257984;15105.027;-169
2025-11-18T23:22:15.296;599616079078936704;15112.706;-239
2025-11-18T23:22:15.304;599616079086615424;15120.384;-229
2025-11-18T23:22:15.312;599616079094294067;15128.0625;-247
2025-11-18T23:22:15.319;599616079101972736;15135.742;-414
2025-11-18T23:22:15.327;599616079109651456;15143.42;-464
2025-11-18T23:22:15.335;599616079117330176;15151.099;-312
2025-11-18T23:22:15.342;599616079125008768;15158.778;-212
2025-11-18T23:22:15.350;599616079132687488;15166.456;-247
2025-11-18T23:22:15.358;599616079140366208;15174.135;-237
2025-11-18T23:22:15.365;599616079148044928;15181.813;-202
2025-11-18T23:22:15.373;599616079155723520;15189.493;-222
2025-11-18T23:22:15.381;599616079163402240;15197.171;-209
2025-11-18T23:22:15.388;599616079171080960;15204.85;-219
2025-11-18T23:22:15.396;599616079178759680;15212.528;-309
2025-11-18T23:22:15.404;599616079186438400;15220.208;-359
2025-11-18T23:22:15.411;599616079194116992;15227.886;-302
2025-11-18T23:22:15.419;599616079201795712;15235.564;-194
2025-11-18T23:22:15.427;599616079209474432;15243.243;-192
2025-11-18T23:22:15.434;599616079217153152;15250.922;-287
2025-11-18T23:22:15.442;599616079224831744;15258.601;-219
2025-11-18T23:22:15.450;599616079232510464;15266.279;-114
2025-11-18T23:22:15.457;599616079240189184;15273.958;-209
2025-11-18T23:22:15.465;599616079247867904;15281.637;-274
2025-11-18T23:22:15.473;599616079255546496;15289.315;-249
2025-11-18T23:22:15.480;599616079263225216;15296.994;-257
2025-11-18T23:22:15.488;599616079270903936;15304.673;-157
2025-11-18T23:22:15.496;599616079278582656;15312.352;29
2025-11-18T23:22:15.504;599616079286261376;15320.03;104
2025-11-18T23:22:15.511;599616079293939968;15327.709;37
2025-11-18T23:22:15.519;599616079301618688;15335.387;-47
2025-11-18T23:22:15.527;599616079309297408;15343.066;-69
2025-11-18T23:22:15.534;599616079316976128;15350.745;7
2025-11-18T23:22:15.542;599616079324654720;15358.423;162
2025-11-18T23:22:15.550;599616079332333440;15366.102;207
2025-11-18T23:22:15.557;599616079340012160;15373.781;49
2025-11-18T23:22:15.565;599616079347690880;15381.46;-92
2025-11-18T23:22:15.573;599616079355369600;15389.139;-217
2025-11-18T23:22:15.580;599616079363048192;15396.817;-399
2025-11-18T23:22:15.588;599616079370726912;15404.496;-317
2025-11-18T23:22:15.596;599616079378405632;15412.175;-59
2025-11-18T23:22:15.603;599616079386084352;15419.853;-14
2025-11-18T23:22:15.611;599616079393762944;15427.532;-84
2025-11-18T23:22:15.619;599616079401441664;15435.211;-219
2025-11-18T23:22:15.626;599616079409120384;15442.889;-339
2025-11-18T23:22:15.634;599616079416799104;15450.567;-194
2025-11-18T23:22:15.642;599616079424477824;15458.247;29
2025-11-18T23:22:15.649;599616079432156416;15465.926;89
2025-11-18T23:22:15.657;599616079439835136;15473.604;52
2025-11-18T23:22:15.665;599616079447513856;15481.282;-92
2025-11-18T23:22:15.672;599616079455192576;15488.962;-207
2025-11-18T23:22:15.680;599616079462871168;15496.641;-62
2025-11-18T23:22:15.688;599616079470549888;15504.318;99
2025-11-18T23:22:15.695;599616079478228608;15511.997;57
2025-11-18T23:22:15.703;599616079485907328;15519.677;19
2025-11-18T23:22:15.711;599616079493585920;15527.3545;137
2025-11-18T23:22:15.719;599616079501264640;15535.033;157
2025-11-18T23:22:15.726;599616079508943360;15542.712;19
2025-11-18T23:22:15.734;599616079516622080;15550.392;62
2025-11-18T23:22:15.742;599616079524300800;15558.069;164
2025-11-18T23:22:15.749;599616079531979392;15565.748;104
2025-11-18T23:22:15.757;599616079539658112;15573.427;92
2025-11-18T23:22:15.765;599616079547336832;15581.106;177
2025-11-18T23:22:15.772;599616079555015552;15588.784;157
2025-11-18T23:22:15.780;599616079562694144;15596.463;42
2025-11-18T23:22:15.788;599616079570372864;15604.142;57
2025-11-18T23:22:15.795;599616079578051584;15611.82;207
2025-11-18T23:22:15.803;599616079585730304;15619.499;174
2025-11-18T23:22:15.811;599616079593409024;15627.178;-217
2025-11-18T23:22:15.818;599616079601087616;15634.855;-569
2025-11-18T23:22:15.826;599616079608766336;15642.535;-474
2025-11-18T23:22:15.834;599616079616445056;15650.214;-302
2025-11-18T23:22:15.841;599616079624123776;15657.893;-357
2025-11-18T23:22:15.849;599616079631802368;15665.571;-217
2025-11-18T23:22:15.857;599616079639481088;15673.25;12
2025-11-18T23:22:15.864;599616079647159808;15680.929;-4
2025-11-18T23:22:15.872;599616079654838518;15688.607;39
2025-11-18T23:22:15.880;599616079662517248;15696.286;69
2025-11-18T23:22:15.887;599616079670195968;15703.965;-62
2025-11-18T23:22:15.895;599616079677874688;15711.644;-37
2025-11-18T23:22:15.903;599616079685553280;15719.321;64
2025-11-18T23:22:15.911;599616079693232000;15727.001;39
2025-11-18T23:22:15.918;599616079700910720;15734.68;-4
2025-11-18T23:22:15.926;599616079708589440;15742.358;-69
2025-11-18T23:22:15.934;599616079716268032;15750.036;-147
2025-11-18T23:22:15.941;599616079723946752;15757.716;-62
2025-11-18T23:22:15.949;599616079731625472;15765.395;22
2025-11-18T23:22:15.957;599616079739304192;15773.073;-107
2025-11-18T23:22:15.964;599616079746982912;15780.751;-142
2025-11-18T23:22:15.972;599616079754661504;15788.431;-2
2025-11-18T23:22:15.980;599616079762340224;15796.109;19
2025-11-18T23:22:15.987;599616079770018944;15803.787;-72
2025-11-18T23:22:15.995;599616079777697664;15811.466;-189
2025-11-18T23:22:16.003;599616079785376256;15819.1455;-299
2025-11-18T23:22:16.010;599616079793054976;15826.824;-309
2025-11-18T23:22:16.018;599616079800733696;15834.502;-277
2025-11-18T23:22:16.026;599616079808412416;15842.181;-282
2025-11-18T23:22:16.033;599616079816091008;15849.86;-299
2025-11-18T23:22:16.041;599616079823769728;15857.539;-299
2025-11-18T23:22:16.049;599616079831448448;15865.217;-369
2025-11-18T23:22:16.056;599616079839127168;15872.896;-447
2025-11-18T23:22:16.064;599616079846805888;15880.575;-352
2025-11-18T23:22:16.072;599616079854484480;15888.253;-219
2025-11-18T23:22:16.079;599616079862163200;15895.932;-67
2025-11-18T23:22:16.087;599616079869841920;15903.611;67
2025-11-18T23:22:16.095;599616079877520640;15911.29;34
2025-11-18T23:22:16.102;599616079885199232;15918.968;82
2025-11-18T23:22:16.110;599616079892877952;15926.646;189
2025-11-18T23:22:16.118;599616079900556672;15934.326;104
2025-11-18T23:22:16.126;599616079908235392;15942.005;12
2025-11-18T23:22:16.133;599616079915914112;15949.683;49
2025-11-18T23:22:16.141;599616079923592704;15957.361;99
2025-11-18T23:22:16.149;599616079931271424;15965.041;167
2025-11-18T23:22:16.156;599616079938950144;15972.719;227
2025-11-18T23:22:16.164;599616079946628864;15980.397;182
2025-11-18T23:22:16.172;599616079954307456;15988.076;139
2025-11-18T23:22:16.179;599616079961986176;15995.755;124
2025-11-18T23:22:16.187;599616079969664896;16003.434;47
2025-11-18T23:22:16.195;599616079977343616;16011.112;27
2025-11-18T23:22:16.202;599616079985022336;16018.791;174
2025-11-18T23:22:16.210;599616079992700928;16026.47;389
2025-11-18T23:22:16.218;599616080000379648;16034.148;429
2025-11-18T23:22:16.225;599616080008058368;16041.827;202
2025-11-18T23:22:16.233;599616080015737088;16049.506;-47
2025-11-18T23:22:16.241;599616080023415680;16057.185;-167
2025-11-18T23:22:16.248;599616080031094400;16064.863;-134
2025-11-18T23:22:16.256;599616080038773120;16072.542;-49
2025-11-18T23:22:16.264;599616080046451840;16080.22;-147
2025-11-18T23:22:16.271;599616080054130432;16087.899;-314
